"id","frame","x [nm]","y [nm]","intensity [photon]","uncertainty_xy [nm]"
1,2,22303.9,680.703,14789.9,2.02848
2,2,6638.6,1006.16,11387.9,2.47121
3,2,36534.7,2212.19,5713.69,4.3286
4,2,33195,2438.11,3262.73,7.08132
5,2,9659.42,3497.01,5330.73,4.5932
6,2,37963.7,4191.54,7165.47,3.57937
7,2,43777.7,5382.17,11781.9,2.40738
8,2,32198.1,5306.94,8685.14,3.05954
9,2,12337.1,6720.59,10197.3,2.69304
10,2,7656.41,7405.46,21604.9,1.54666
11,2,31402.7,9235.84,6171.51,4.05487
12,2,2079.42,9284.39,7913.41,3.29909
13,2,15283.7,10859.7,5606.35,4.39917
14,2,2244.85,13455.9,8938.12,2.98981
15,2,15677.8,13914.9,7052.32,3.62685
16,2,13780.1,14184.6,7602.4,3.40907
17,2,10632.2,16292.2,13091,2.22195
18,2,5744.27,17000.6,7210.73,3.56079
19,2,23593,17635.3,11549.2,2.44457
20,2,8479.74,18257.2,6302.64,3.98369
21,2,18301.8,18515.3,4088.42,5.78838
22,2,1251.36,18842.4,15597.6,1.95066
23,2,22329.5,21094.9,2965.06,7.72288
24,2,42369.8,21498.5,4700.58,5.12123
25,2,39674.1,21830.2,9456.28,2.85837
26,2,49070,25025,11452.9,2.46039
27,2,37293.7,26715,7048.84,3.62833
28,2,47369.2,27064.3,10978.3,2.54227
29,2,45371.2,27302.2,7580.93,3.41699
30,2,24959.7,27782.9,6782.51,3.74634
31,2,29394.5,29330.6,5751.41,4.30443
32,2,20894.8,29777.1,6241.72,4.01639
33,2,32224.9,32210.2,8712.41,3.05183
34,2,3286.47,33725.3,7253.09,3.54361
35,2,35308.5,33958.1,5954.49,4.17945
36,2,24711.2,34633.6,12814.8,2.25804
37,2,43689.3,34849.8,5416.02,4.53106
38,2,23394.9,34798.2,11999.5,2.37386
39,2,48125.2,34907,9115.1,2.94328
40,2,46781.2,35030.5,11393.1,2.47034
41,2,2628.53,35961.7,3838.91,6.12081
42,2,1641.6,37194.9,5692.8,4.34213
43,2,4904.89,37445,4890.32,4.94807
44,2,5883.75,40254.5,6629.32,3.81843
45,2,3645.86,42191.4,7214.79,3.55913
46,2,49448.3,42187.5,4264.81,5.57667
47,2,5849.38,44180.7,7177.07,3.57458
48,2,35592,44983.3,6104.2,4.09257
49,2,3947.33,45218.1,10203.1,2.69184
50,2,27148.9,45415.3,2588.48,8.74492
51,2,40378.4,45996.8,6417.53,3.92368
52,2,28187.3,47031.8,8418.8,3.13736
53,2,5865.85,48523.5,13203.5,2.20766
54,2,778.046,49919.1,2781.12,8.18765
55,21,22306.6,673.219,15455.5,1.9638
56,21,6645.78,1009.47,10645.2,2.60395
57,21,36534,2241.71,6141.33,4.07167
58,21,33195.3,2419.18,3422.88,6.78209
59,21,9688.57,3503.23,6704.75,3.78253
60,21,37994.3,4167.38,7520,3.4397
61,21,43758,5371.1,12108,2.35758
62,21,32192.7,5305.31,9242.17,2.91094
63,21,12347.7,6725.75,9669.23,2.80833
64,21,7685.63,7354.08,21255.6,1.56424
65,21,31352.9,9236.8,6065.32,4.11473
66,21,2069.28,9288.96,7712.64,3.36909
67,21,15262.5,10894.7,6169.19,4.05615
68,21,2241.25,13453.1,9403.48,2.87112
69,21,15665,13894.9,7323.3,3.51555
70,21,13774.9,14186.3,7326.78,3.51418
71,21,10627.7,16284,13786.1,2.13728
72,21,5763.88,17006.6,6983.85,3.65631
73,21,23540.1,17668.7,11505.7,2.45169
74,21,8490.9,18268.4,6239.4,4.01765
75,21,18301.8,18523.2,3836.01,6.12492
76,21,1250.74,18871.1,15294.1,1.97898
77,21,22269.4,21100.3,2986.53,7.67235
78,21,42331.6,21504.8,4440.05,5.38287
79,21,39659.1,21840,9189.37,2.92427
80,21,49057.5,25023.2,10917.9,2.55318
81,21,37301.2,26714.7,7614.58,3.40459
82,21,47347.9,27036.5,10800.7,2.57469
83,21,45358.7,27301.2,7308.79,3.52131
84,21,24972.6,27806.7,6198.2,4.04014
85,21,29382.8,29295.4,6002.07,4.15137
86,21,20883.5,29777.4,6624.1,3.82095
87,21,32209.2,32207.1,8283.6,3.17873
88,21,3298.15,33731.1,7003,3.64801
89,21,35368.1,33969.9,5928.38,4.19504
90,21,24737.1,34642,11683.3,2.42297
91,21,43678.1,34849.1,4738.3,5.08572
92,21,23384.2,34765,11766.2,2.40984
93,21,48109.5,34895.5,9044.31,2.96168
94,21,46782.7,35027.3,11509.8,2.45102
95,21,2660.06,35943.6,3401.41,6.82058
96,21,1664.96,37185.7,5821.04,4.26061
97,21,4908.89,37433.9,5020.88,4.83645
98,21,5916.84,40247,7254.83,3.5429
99,21,3625.02,42225.6,7557.14,3.42581
100,21,49414.1,42165.7,4824.17,5.00691
101,21,5853.17,44235.1,7010.54,3.64476
102,21,35570.9,44955.3,5960.3,4.176
103,21,3970.68,45228.1,10248.9,2.68238
104,21,27163.9,45413,2464.89,9.14814
105,21,40350,46009,6072.86,4.11041
106,21,28185.3,47013.6,7976.07,3.27795
107,21,5858.75,48534.5,13321.9,2.19288
108,21,793.072,49916.5,2793.89,8.15342
109,22,22306.1,676.504,15182.2,1.9897
110,22,6647.79,982.043,10157.2,2.70137
111,22,36560.2,2235.72,5998.59,4.15341
112,22,33208.9,2438.09,3503.53,6.6417
113,22,9668.89,3510.83,7128.33,3.59479
114,22,37993.6,4173.38,7326.78,3.51418
115,22,43767,5386.39,11580,2.43957
116,22,32177.9,5319.09,9244.49,2.91036
117,22,12345.6,6727.33,9654.73,2.81168
118,22,7674.66,7375.12,21124.5,1.57098
119,22,31362.4,9237.04,6298.58,3.98585
120,22,2083.45,9279.13,7633.73,3.39759
121,22,15275.5,10861.3,5857.01,4.23837
122,22,2233.52,13446.5,9088.99,2.95004
123,22,15684.1,13914.7,7383.06,3.49209
124,22,13784.1,14189.7,7033.17,3.63503
125,22,10614.1,16269.2,13888.2,2.12552
126,22,5736.21,16999.9,6645.57,3.81063
127,22,23567.8,17686.3,11535.9,2.44675
128,22,8499.22,18245.7,6224.31,4.02585
129,22,18332,18530,3789.01,6.19251
130,22,1270.06,18837.2,15118.3,1.99588
131,22,22269.9,21098.8,2969.12,7.71327
132,22,42369.9,21531.7,4678.53,5.14226
133,22,39664.8,21840.7,9666.91,2.80887
134,22,49072.4,25044.5,10902.8,2.55592
135,22,37300.4,26721,7156.77,3.58297
136,22,47338.5,27064.4,10747.9,2.58453
137,22,45356.4,27289.4,7884.98,3.30879
138,22,24967.1,27800.8,6358.35,3.95433
139,22,29384.7,29299.3,5904.01,4.20972
140,22,20887.3,29771.4,6631.06,3.81759
141,22,32213.4,32220.1,8541.81,3.10082
142,22,3280.71,33759.2,6628.74,3.81871
143,22,35363.1,33945.4,5835.54,4.25161
144,22,24722.4,34632.5,11478.4,2.45617
145,22,43677,34806.6,4408.72,5.4164
146,22,23394.5,34782.3,11934.5,2.38375
147,22,48129.8,34903,8897.51,3.00074
148,22,46778.5,35032,11017.1,2.53531
149,22,2611.24,35994,3750.14,6.24968
150,22,1652.6,37190.2,5988.15,4.15954
151,22,4939.29,37435.1,5279.67,4.63134
152,22,5905.78,40237.5,7413.23,3.48038
153,22,3669.32,42199,6882.31,3.70107
154,22,49423,42209.3,4395.37,5.43083
155,22,5885.57,44208.2,7247.86,3.54571
156,22,35561.8,44976.5,5709.63,4.33123
157,22,3965.14,45223.7,10628.4,2.60716
158,22,27146.7,45438.6,2625.04,8.63291
159,22,40337.7,46011.7,6141.91,4.07134
160,22,28184.9,47043,8025.98,3.26134
161,22,5866.55,48548.8,13182.6,2.21029
162,22,800.892,49907.7,2827.54,8.06468
163,23,22302.7,678.137,15333.6,1.97524
164,23,6650.15,987.324,9988.95,2.73711
165,23,36558.9,2236.42,5826.26,4.25736
166,23,33227.7,2415.04,3376.46,6.86592
167,23,9671.48,3500.28,7146.9,3.58706
168,23,38009.8,4173.89,7214.79,3.55913
169,23,43785.9,5398.68,11831.8,2.39959
170,23,32197.6,5321.06,9372.73,2.87861
171,23,12334,6744.48,10113.7,2.7105
172,23,7680.68,7378.98,20842.5,1.58575
173,23,31337.7,9233.89,6372.85,3.94676
174,23,2068.51,9274.86,7850.74,3.32056
175,23,15270.5,10842.8,5942.89,4.18636
176,23,2243.44,13447.3,9361.12,2.88145
177,23,15683.9,13904.7,7193.32,3.56791
178,23,13772.8,14201.5,7111.51,3.60183
179,23,10628.1,16274.1,13567.9,2.16296
180,23,5758.88,17001.3,7113.25,3.6011
181,23,23598.6,17649.8,11530.7,2.4476
182,23,8503.13,18275.6,6233.59,4.0208
183,23,18305.7,18528.8,3891.14,6.04773
184,23,1247.51,18869.9,14987.8,2.00868
185,23,22284.1,21120.6,2889.05,7.9078
186,23,42381.7,21534.6,4502.14,5.3178
187,23,39680.6,21827.6,9458.6,2.85781
188,23,49072.5,25033,10729.9,2.58791
189,23,37321.4,26721.6,7084.23,3.61331
190,23,47358.1,27036.7,10604,2.61183
191,23,45395.9,27261.4,7395.25,3.48735
192,23,24970.6,27816.2,6215.6,4.0306
193,23,29414.5,29295.7,5999.17,4.15307
194,23,20883.9,29779.8,6222.57,4.0268
195,23,32214.5,32229.5,7893.1,3.30601
196,23,3300.19,33726.2,6991.4,3.65304
197,23,35366.1,33978.8,6029.35,4.13548
198,23,24732.2,34638.6,12233.9,2.33903
199,23,43688.8,34829.8,4315.88,5.51858
200,23,23389.2,34791.9,12406.8,2.31416
201,23,48120.9,34913.1,9279.89,2.90151
202,23,46789,35047.8,11645.6,2.429
203,23,2644.71,35987.9,3917.25,6.01191
204,23,1660.58,37204.1,5771.72,4.29154
205,23,4908.56,37457.5,4965.17,4.88336
206,23,5890.37,40250.3,7237.42,3.54994
207,23,3643.95,42197.2,7106.86,3.60378
208,23,49449.3,42166.6,4645.46,5.17416
209,23,5867.18,44208,7096.42,3.60817
210,23,35555.9,44966.9,5595.9,4.40618
211,23,3974.02,45216.6,10437.5,2.64434
212,23,27163.3,45427.1,2625.62,8.63115
213,23,40340.8,46034.9,5776.94,4.28824
214,23,28188.2,47024.9,7890.2,3.307
215,23,5874.04,48540,12666.2,2.27807
216,23,774.754,49905.2,3166.41,7.27578
217,41,22301.7,678.297,15353.9,1.97332
218,41,6633.04,1032.88,10954.5,2.54656
219,41,36565.5,2221.17,5993.95,4.15614
220,41,33218.8,2415.46,2630.84,8.61541
221,41,9696.7,3505.07,7390.02,3.48938
222,41,38003.4,4178.24,7103.96,3.60499
223,41,43765.6,5385.16,12192.1,2.34515
224,41,32201.3,5308.37,9632.1,2.81691
225,41,12330.2,6739.46,9225.93,2.91503
226,41,7687.28,7427.98,21561.4,1.54882
227,41,31348.9,9253.37,7004.74,3.64726
228,41,2072.67,9280.33,7819.99,3.33122
229,41,15296.8,10891.8,5486.23,4.48136
230,41,2250.53,13426.9,9265.38,2.90513
231,41,15686.6,13902.3,6593.35,3.83584
232,41,13761.2,14185.9,7459.65,3.46255
233,41,10617.5,16268.6,14198.1,2.09085
234,41,5749.58,16988.7,7196.22,3.56672
235,41,23557.2,17651,11520.2,2.44931
236,41,8485.33,18258.3,6124.51,4.08111
237,41,18298.5,18519.7,4380.28,5.44724
238,41,1246.48,18870.2,15705.5,1.94084
239,41,22269.4,21104.8,2605.31,8.69297
240,41,42377.4,21534.7,5008.11,4.84711
241,41,39684.8,21841.9,9364.6,2.8806
242,41,49094.9,25052.1,10468.8,2.63815
243,41,37322.7,26711.7,6372.85,3.94676
244,41,47352.7,27072.3,11049.1,2.52963
245,41,45385.2,27273.5,7601.81,3.40928
246,41,24975.9,27784,6156.42,4.06325
247,41,29393.5,29302.4,6017.16,4.14256
248,41,20894.5,29760.3,6406.51,3.92935
249,41,32210.7,32218.4,8160.59,3.21754
250,41,3310.37,33726.8,6958.9,3.66719
251,41,35335.6,33978.8,6280.01,3.99576
252,41,24736.8,34643.8,12629.7,2.28307
253,41,43676.2,34835.9,4657.06,5.16292
254,41,23390.6,34790.3,11537.6,2.44646
255,41,48124.7,34912.8,9072.74,2.95426
256,41,46807.2,35039.6,10610.4,2.61061
257,41,2662.89,35999.6,3754.78,6.24279
258,41,1655.41,37189.6,5467.09,4.49479
259,41,4904.32,37447.5,5161.88,4.72217
260,41,5911.6,40265.1,7144,3.58827
261,41,3649.5,42196.8,7244.38,3.54712
262,41,49449,42181.5,4535.21,5.28385
263,41,5876.02,44208.2,7310.53,3.52061
264,41,35606.7,44947.5,5951.59,4.18117
265,41,3956.95,45229.3,9287.43,2.89963
266,41,27156.2,45434.2,2500.86,9.02667
267,41,40345.2,46005,6100.72,4.09455
268,41,28202,47010.4,7749.2,3.35608
269,41,5860.4,48540.7,12808.4,2.25889
270,41,803.639,49915.6,2957.52,7.74081
271,42,22303.2,667.621,15257,1.98252
272,42,6620.05,1023.31,10823.3,2.5705
273,42,36539.7,2217.78,5775.78,4.28897
274,42,33242,2395.26,2646.51,8.56856
275,42,9683.41,3472.07,7480.54,3.4546
276,42,37979.1,4194.49,7198.54,3.56577
277,42,43774.8,5389.04,11885.2,2.39132
278,42,32189.4,5314.95,9444.1,2.8613
279,42,12324.3,6729.33,9717.98,2.79718
280,42,7683.29,7389.01,21765.6,1.53874
281,42,31374,9237.62,6821.96,3.72828
282,42,2061.76,9280.99,7763.12,3.35115
283,42,15303.4,10867,5342.91,4.5842
284,42,2213.99,13439.9,9329.79,2.88915
285,42,15685.6,13904.1,6611.33,3.82711
286,42,13770.2,14184.6,7571.06,3.42064
287,42,10603.6,16264.1,14073.9,2.10457
288,42,5736.82,16996.4,7429.48,3.47412
289,42,23577.7,17634.8,11375.7,2.47325
290,42,8492.08,18254.6,6268.41,4.00199
291,42,18305.1,18526.3,4227.68,5.61978
292,42,1217.49,18854.2,15922.6,1.92148
293,42,22263.6,21111,3015.54,7.6052
294,42,42376.7,21526.7,4922.23,4.92024
295,42,39679.8,21840.3,9334.43,2.888
296,42,49080.4,25048.8,10159.5,2.70089
297,42,37326.4,26709.8,5959.72,4.17634
298,42,47355.6,27035.1,10797.8,2.57523
299,42,45420,27270.3,7542.63,3.43122
300,42,24985.6,27794.3,6205.74,4.036
301,42,29409.7,29281.2,6137.85,4.07362
302,42,20903.4,29770,6482.52,3.89066
303,42,32219.1,32212.8,8295.79,3.17495
304,42,3288.25,33718.2,6626.42,3.81983
305,42,35367.7,33947.4,6037.47,4.13077
306,42,24716.8,34637,11801.6,2.40429
307,42,43674.6,34835.1,4744.68,5.07976
308,42,23392.9,34786.9,11615.4,2.43385
309,42,48138.2,34895.8,8757.67,3.03914
310,42,46802.3,35042.1,10515.8,2.62892
311,42,2676.07,35999.1,3692.11,6.33724
312,42,1668.2,37193.6,5318.54,4.60223
313,42,4908.88,37433.8,5605.77,4.39956
314,42,5878.54,40246.3,7252.51,3.54384
315,42,3655.15,42196.7,7120.79,3.59794
316,42,49441.7,42181.8,4672.73,5.14782
317,42,5872.67,44202.6,7167.21,3.57865
318,42,35559.7,44964.4,5617.95,4.39141
319,42,3962.53,45216.3,9723.78,2.79586
320,42,27156.7,45404.6,2500.28,9.0286
321,42,40303,46020.9,6169.77,4.05583
322,42,28178.8,47015.3,7889.62,3.3072
323,42,5859.6,48543.7,12984.2,2.23573
324,42,809.428,49895.1,3146.1,7.31829
325,43,22302.8,665.395,14845,2.02291
326,43,6624.62,1021.1,10453.1,2.64124
327,43,36563.5,2218.87,6212.7,4.03219
328,43,33232.4,2406.78,2791.57,8.15962
329,43,9692.94,3475.67,7130.07,3.59406
330,43,37972.2,4188.19,7497.95,3.44801
331,43,43781.2,5384.75,12272.8,2.33338
332,43,32191,5326.48,9241.59,2.91109
333,43,12321.8,6721.25,10258.2,2.68048
334,43,7670.87,7441.69,21649,1.54448
335,43,31332.4,9219.65,7099.9,3.6067
336,43,2060.09,9255.86,7912.83,3.29929
337,43,15267,10845.3,5515.83,4.46078
338,43,2220.16,13444.8,8860.95,3.01067
339,43,15666.1,13895.3,6615.4,3.82515
340,43,13751.8,14175.3,7456.17,3.46388
341,43,10592.7,16265.3,13775.1,2.13855
342,43,5738.49,16990.3,7609.94,3.4063
343,43,23576,17661.2,11775,2.40847
344,43,8499.73,18244.5,5962.62,4.17462
345,43,18302.3,18516.2,4084.36,5.79347
346,43,1233.11,18837.4,15590.1,1.95135
347,43,22303.7,21103.5,2985.37,7.67506
348,43,42387.8,21531.8,4911.21,4.92982
349,43,39681.7,21833.6,9172.54,2.92855
350,43,49061.9,25028,10211.2,2.69016
351,43,37318,26707.6,6321.21,3.97384
352,43,47370.7,27034.9,11185.4,2.50571
353,43,45397,27274.1,7804.9,3.33648
354,43,24948.7,27798.6,6202.26,4.03791
355,43,29413.8,29306.7,6228.37,4.02364
356,43,20894.9,29768.7,6334.56,3.9668
357,43,32230.6,32237.4,8092.7,3.23945
358,43,3289.69,33714.2,6742.47,3.76487
359,43,35380,33951.5,6115.22,4.08634
360,43,24736.2,34640.4,11654.3,2.4276
361,43,43687.8,34847.5,4917.59,4.92427
362,43,23384.9,34771.3,11509.8,2.45102
363,43,48146.1,34899.5,9337.33,2.88729
364,43,46817.8,35047.4,11346.7,2.47813
365,43,2622.1,35964.9,3589.41,6.49911
366,43,1654.41,37181.6,5573.27,4.42145
367,43,4894.43,37419.9,5288.95,4.62435
368,43,5904.47,40237.8,7392.93,3.48825
369,43,3652.36,42190.1,6992.56,3.65253
370,43,49432.2,42180.5,4425.54,5.39833
371,43,5873.54,44228.8,6867.22,3.70783
372,43,35571,44993.5,5629.56,4.38369
373,43,3938.53,45213.6,10146.2,2.70368
374,43,27157.8,45415.7,2604.15,8.69653
375,43,40324.7,46019.1,6069.38,4.1124
376,43,28177.3,47023,7936.04,3.29142
377,43,5881.81,48490.8,12260,2.33523
378,43,759.533,49929.1,3016.7,7.60254
379,44,22304.8,670.207,14886.2,2.01878
380,44,6639.6,981.16,10631.3,2.60661
381,44,36549,2228.39,6169.19,4.05615
382,44,33216.5,2407.22,2909.94,7.85602
383,44,9661.46,3504.02,7274.56,3.53497
384,44,37975.4,4197.14,7184.62,3.57148
385,44,43781.2,5383.58,12315.7,2.32718
386,44,32196.4,5337.36,9488.2,2.85073
387,44,12323.7,6721.62,9521.27,2.84287
388,44,7695.35,7387.56,22101,1.52257
389,44,31381.2,9247.05,6976.89,3.65934
390,44,2073.7,9258.98,7880.91,3.31018
391,44,15312.4,10875.7,5634.2,4.3806
392,44,2231.09,13439.9,9287.43,2.89963
393,44,15674.5,13915.3,6661.81,3.80287
394,44,13766.8,14188.6,7443.41,3.46877
395,44,10609.6,16262.5,14079.7,2.10392
396,44,5734.08,17004.3,7560.62,3.42452
397,44,23556.8,17652.8,11268.4,2.49143
398,44,8501.64,18247.3,6433.2,3.91566
399,44,18303.2,18508.9,3978.17,5.93016
400,44,1247.97,18858.2,15505.9,1.95911
401,44,22263,21106.4,2933.15,7.79936
402,44,42374.9,21542.7,5004.63,4.85003
403,44,39679.9,21843.6,8935.22,2.99059
404,44,49066.1,25024,10920.2,2.55276
405,44,37330.9,26707.3,6289.3,3.9908
406,44,47370.4,27033.8,11072.3,2.52552
407,44,45417.2,27223.2,7839.14,3.32458
408,44,24963.4,27787.5,6070.54,4.11173
409,44,29393.8,29305.6,6046.75,4.12541
410,44,20887.8,29775.7,6352.54,3.95736
411,44,32215.3,32235.5,8494.81,3.11466
412,44,3280.9,33737.1,6774.96,3.74981
413,44,35341.7,33948.8,6139.59,4.07264
414,44,24737.6,34643.2,12239.1,2.33827
415,44,43675.2,34831.3,4630.95,5.1883
416,44,23378.9,34777.7,11906.7,2.38802
417,44,48143.8,34917.2,9521.85,2.84273
418,44,46795.1,35040.6,11543.4,2.44551
419,44,2633.09,35970.7,3812.22,6.15893
420,44,1665.84,37189,5306.36,4.61131
421,44,4899.12,37435.5,5365.54,4.5676
422,44,5880.35,40236.5,7460.23,3.46233
423,44,3638.85,42213.5,7143.42,3.58851
424,44,49459.3,42172.9,4680.27,5.14059
425,44,5864.4,44206.3,6764.52,3.75464
426,44,35583.5,44994.5,5745.02,4.3085
427,44,3952.02,45208.1,10407.3,2.65034
428,44,27167.7,45398.5,2504.35,9.0151
429,44,40331.4,46022.9,6317.73,3.97568
430,44,28179,47028.5,7894.84,3.30542
431,44,5883.54,48512,12233.9,2.33903
432,44,768.033,49912.4,2909.36,7.85745
433,61,22319.4,689.91,13929.4,2.12083
434,61,6636.79,1009.79,10663.2,2.60052
435,61,36555.3,2216.71,6027.02,4.13683
436,61,33210.9,2430.43,3296.38,7.01603
437,61,9666.65,3487.2,5732.26,4.31666
438,61,37998.7,4170.93,7231.04,3.55253
439,61,43787.1,5397.67,12091.2,2.36008
440,61,32185.3,5334.2,9312.38,2.89345
441,61,12343.4,6714.81,9110.46,2.94448
442,61,7682.31,7392,22074.3,1.52384
443,61,31340.8,9248.33,6622.36,3.82179
444,61,2064.88,9278.64,7627.93,3.39971
445,61,15294.3,10835.1,5654.51,4.36718
446,61,2240.94,13458.3,9284.53,2.90036
447,61,15677.4,13909.6,7016.93,3.64201
448,61,13759.8,14178.3,7634.89,3.39717
449,61,10616.3,16266.4,14100,2.10166
450,61,5749.58,17004.9,7584.41,3.4157
451,61,23552.4,17643.4,11574.2,2.44051
452,61,8528.76,18258,7601.23,3.4095
453,61,18304.9,18516.1,4044.9,5.84343
454,61,1238.4,18853.8,16046.7,1.91063
455,61,22262.9,21096.6,3017.28,7.60121
456,61,42378.8,21519.8,4409.88,5.41515
457,61,39688.6,21842.4,9130.77,2.93925
458,61,49071.4,25033.6,10809.4,2.57308
459,61,37334.7,26696.9,6627.58,3.81927
460,61,47375,27047.8,11873,2.3932
461,61,45382.3,27290.7,7183.46,3.57196
462,61,24970.1,27832,6206.9,4.03536
463,61,29415.6,29300.7,6036.89,4.13111
464,61,20902.8,29759.2,6401.86,3.93174
465,61,32213.6,32213.4,8491.91,3.11552
466,61,3275.69,33726.2,6717.52,3.77653
467,61,35372.5,33953.2,6031.09,4.13447
468,61,24737.3,34637.7,11896.8,2.38953
469,61,43686.1,34827.3,4497.49,5.3226
470,61,23389.8,34788.1,11737.8,2.41432
471,61,48130.4,34903.6,8542.4,3.10065
472,61,46808.8,35044.8,10957.4,2.54603
473,61,2665.74,35963.2,3936.4,5.98595
474,61,1661.5,37186.4,5423.57,4.52566
475,61,4899.33,37444,5304.04,4.61304
476,61,5872.15,40258,6929.31,3.68019
477,61,3651.23,42198.7,6910.16,3.68866
478,61,49472.9,42162.7,4639.65,5.17981
479,61,5862.59,44206.4,7229.3,3.55323
480,61,35592.3,44998.5,5845.99,4.24516
481,61,3961.84,45219.7,9856.65,2.76604
482,61,27149,45408,2825.22,8.07073
483,61,40328.1,46025.2,5833.8,4.25269
484,61,28189.4,47037.4,7963.31,3.28223
485,61,5859.72,48546.5,12735.3,2.2687
486,61,788.752,49910.2,2713.23,8.37504
487,62,22291.9,680.949,13899.8,2.1242
488,62,6646.14,1009.79,10317.4,2.66841
489,62,36560.4,2246.47,6226.63,4.02459
490,62,33210,2401.62,3436.8,6.75738
491,62,9707.68,3490.79,6628.74,3.81871
492,62,37974.2,4189.85,7312.27,3.51992
493,62,43777.4,5390.99,12459.1,2.30678
494,62,32199,5309.95,9090.73,2.94958
495,62,12335.3,6722.12,9650.67,2.81261
496,62,7669.88,7420.7,21802.2,1.53696
497,62,31356.7,9252.37,6791.79,3.74207
498,62,2060.63,9270.47,7692.91,3.37616
499,62,15269.6,10849.6,5703.25,4.33535
500,62,2245.85,13450,9315.86,2.89258
501,62,15682.8,13910,7188.68,3.56981
502,62,13768.8,14181.1,7320.4,3.5167
503,62,10611.4,16271.8,14073.9,2.10457
504,62,5735.28,16996.6,7752.68,3.35485
505,62,23572,17655.6,11623.5,2.43254
506,62,8494.23,18280.5,7144.58,3.58802
507,62,18314.6,18525.2,3811.64,6.15976
508,62,1212.22,18854.1,15865.1,1.92656
509,62,22271.7,21087.4,2930.83,7.80498
510,62,42382.2,21524.6,4748.16,5.07652
511,62,39664.3,21843,9531.14,2.84054
512,62,49079.4,25025.5,10912.1,2.55423
513,62,37332.2,26717.3,6348.48,3.95949
514,62,47349.5,27042.6,11516.2,2.44997
515,62,45394.4,27292.3,7332,3.51211
516,62,24962.2,27821,6117.54,4.08503
517,62,29398.9,29324.6,6429.72,3.91744
518,62,20887.9,29774.1,6140.17,4.07232
519,62,32223.8,32220.7,8281.86,3.17927
520,62,3293.08,33720.5,6624.68,3.82067
521,62,35344.5,33973.4,5768.81,4.29337
522,62,24734.3,34628.4,12174.2,2.34779
523,62,43686.1,34835.4,4539.27,5.27972
524,62,23383.7,34777.2,11802.8,2.40411
525,62,48138.2,34898.5,8278.38,3.18035
526,62,46820.7,35046.5,11295.7,2.48678
527,62,2628.9,35965.7,3729.83,6.28002
528,62,1644.07,37182.5,5606.35,4.39917
529,62,4894.51,37409.4,4998.25,4.85538
530,62,5878.97,40262.2,6309.02,3.9803
531,62,3631.01,42165.3,6786.57,3.74447
532,62,49450.2,42190.8,4546.81,5.27206
533,62,5866.34,44201.2,7264.69,3.53893
534,62,35590,44966.4,5796.67,4.27583
535,62,3947.08,45210,9565.95,2.83233
536,62,27173.6,45409.3,2367.41,9.49578
537,62,40359.8,46027.2,6148.88,4.06745
538,62,28197.6,47025,8222.68,3.19781
539,62,5860.61,48525.2,11922.9,2.38552
540,62,778.929,49900.3,2573.98,8.79025
541,63,22313.4,679.41,14273.5,2.08262
542,63,6639.15,1003.95,9869.42,2.76321
543,63,36558.2,2215.72,6047.33,4.12507
544,63,33198.2,2435.2,3339.32,6.93465
545,63,9711.73,3493.33,7322.14,3.51601
546,63,37969.9,4187.26,7144.58,3.58802
547,63,43773.7,5382.04,12411.5,2.3135
548,63,32189.7,5314.21,9448.74,2.86018
549,63,12334.7,6726.69,9333.27,2.88829
550,63,7665.55,7395.02,22176.5,1.519
551,63,31378.6,9239.33,7072.05,3.61846
552,63,2063.05,9283.95,7653.46,3.39041
553,63,15290.1,10873,5854.11,4.24015
554,63,2231.3,13450.4,9088.41,2.95019
555,63,15699.7,13903.3,6893.33,3.69614
556,63,13758.6,14172.1,7326.2,3.51441
557,63,10610.9,16276.4,14229.4,2.08742
558,63,5731.33,17012,8235.44,3.19379
559,63,23579.9,17671.1,11792.4,2.40574
560,63,8536.82,18272.2,7503.17,3.44604
561,63,18306.4,18509.1,4250.89,5.59275
562,63,1270.22,18846.8,15468.2,1.96261
563,63,22273.1,21088.3,3224.43,7.15725
564,63,42381.7,21524.9,4497.49,5.3226
565,63,39689.9,21833.9,9372.73,2.87861
566,63,49065.4,25028.2,10477.5,2.63643
567,63,37307.8,26735.8,6161.06,4.06067
568,63,47367.4,27033.3,11308.4,2.48461
569,63,45390.6,27260.8,6655.43,3.80591
570,63,24963.7,27816.1,6216.19,4.03028
571,63,29381.9,29302,6206.9,4.03536
572,63,20899,29779.3,6156.42,4.06325
573,63,32212.9,32220,7971.43,3.2795
574,63,3275.66,33740.1,6937.43,3.67661
575,63,35350.4,33974.4,5830.32,4.25484
576,63,24729.2,34638.1,11617.1,2.43357
577,63,43677.9,34839.4,4541.01,5.27795
578,63,23394.1,34775.6,11838.2,2.39859
579,63,48137.5,34901,8766.37,3.03672
580,63,46796.9,35034.2,10967.8,2.54415
581,63,2657.84,35948,4065.79,5.81686
582,63,1670.91,37196.5,5732.84,4.31629
583,63,4889.23,37461.1,5146.79,4.7341
584,63,5902.83,40240.1,6585.8,3.83951
585,63,3630.35,42214.1,7043.62,3.63056
586,63,49455.7,42196.6,4513.16,5.30643
587,63,5873.2,44215.6,7293.12,3.52754
588,63,35557.8,44975.5,6132.63,4.07655
589,63,3961.89,45209.6,9980.83,2.73886
590,63,27154.6,45412.7,2399.9,9.37677
591,63,40326.4,46022.5,6155.84,4.06357
592,63,28181.7,47037.8,8155.37,3.21921
593,63,5866.77,48526.7,12238,2.33844
594,63,750.525,49891.4,2726,8.33909
595,64,22272.8,661.078,14206.8,2.08989
596,64,6644.81,1013.18,10821,2.57093
597,64,36544.8,2219.79,6117.54,4.08503
598,64,33229.1,2411.01,3343.96,6.92597
599,64,9705.01,3482.28,6986.75,3.65505
600,64,37982,4178.47,7234.52,3.55111
601,64,43760.3,5376.59,11989.6,2.37535
602,64,32185.9,5314.61,9169.64,2.92929
603,64,12350.8,6725.11,9000.79,2.97313
604,64,7680.85,7373.57,21788.3,1.53764
605,64,31337.8,9210.51,6944.98,3.67329
606,64,2074.98,9294.51,7691.75,3.37658
607,64,15283.6,10851.8,5926.06,4.19644
608,64,2238.32,13442.1,8769.27,3.03591
609,64,15685.7,13914.1,7514.78,3.44166
610,64,13771.2,14178,7533.93,3.43448
611,64,10622.1,16276.3,13872.5,2.12731
612,64,5748.45,16988.1,7694.07,3.37574
613,64,23547.7,17652.6,11642.7,2.42946
614,64,8502.47,18254,7382.48,3.49231
615,64,18304.7,18520.8,4185.9,5.66919
616,64,1249.11,18863.7,15588.9,1.95146
617,64,22289.6,21093.3,3237.78,7.13058
618,64,42366.2,21541.4,4578.73,5.23993
619,64,39667.4,21809.7,9509.09,2.84576
620,64,49084.1,25038.1,10619.7,2.60883
621,64,37307.8,26693.6,6452.93,3.90562
622,64,47360.1,27063.7,11794.1,2.40547
623,64,45373.2,27293.8,6557.95,3.85315
624,64,24963,27811.1,6538.8,3.86259
625,64,29404.7,29285.8,5982.35,4.16296
626,64,20902.2,29771.8,6009.04,4.1473
627,64,32222.8,32223.3,8407.2,3.14086
628,64,3299.44,33727.7,6960.64,3.66643
629,64,35343.7,33973.6,6035.73,4.13178
630,64,24736.9,34637.3,12113.2,2.3568
631,64,43691.7,34853.8,4452.23,5.36996
632,64,23390.8,34778.1,12268.2,2.33406
633,64,48124.6,34902.8,8168.72,3.21494
634,64,46787.2,35040.2,11732.6,2.41514
635,64,2662.76,35981.4,3874.31,6.07106
636,64,1651.37,37198.9,5662.63,4.36184
637,64,4901.89,37447.7,4948.35,4.89774
638,64,5905.76,40243.9,6687.35,3.79074
639,64,3651.1,42188.7,6622.36,3.82179
640,64,49465.7,42186.9,4819.53,5.0111
641,64,5861.46,44193.8,7345.35,3.50685
642,64,35568.9,44967.6,6018.32,4.14189
643,64,3973.92,45230.6,9657.63,2.81101
644,64,27169.1,45413.1,2361.02,9.51954
645,64,40359.6,46000.7,5975.96,4.16673
646,64,28189.9,47018,7865.25,3.31556
647,64,5867.1,48541.2,11877.1,2.39257
648,64,799.534,49915.8,2943.01,7.77554
649,65,22317.1,674.441,13849.3,2.12998
650,65,6634.37,1004.46,10582,2.61608
651,65,36558.7,2230.11,6158.16,4.06228
652,65,33221,2395.41,3484.96,6.67345
653,65,9691.13,3479.31,6514.43,3.87469
654,65,37982.1,4195.68,7149.22,3.5861
655,65,43772.1,5379.86,12055.2,2.36546
656,65,32205.7,5334.13,9165.58,2.93033
657,65,12329.3,6735.52,9175.44,2.92782
658,65,7669.27,7432.37,21280,1.563
659,65,31333.4,9219.89,6513.85,3.87498
660,65,2073.64,9265.65,7770.09,3.3487
661,65,15301,10845.2,5592.42,4.40852
662,65,2237.91,13447,8900.99,2.9998
663,65,15690.2,13897.1,7387.12,3.49051
664,65,13773.8,14172.5,7332.58,3.51188
665,65,10626.4,16276.4,13703.1,2.14695
666,65,5753.1,17002.7,7163.15,3.58033
667,65,23555.3,17648.5,12044.2,2.36712
668,65,8536.54,18273.5,7323.88,3.51532
669,65,18292.4,18519.9,4044.9,5.84343
670,65,1236.94,18855.7,15283.1,1.98003
671,65,22282.4,21101.1,3162.93,7.28303
672,65,42365.2,21530.1,4748.16,5.07652
673,65,39668.8,21832.8,9441.78,2.86186
674,65,49062.4,25039,10848.3,2.5659
675,65,37318.7,26728.8,6455.83,3.90415
676,65,47372.3,27047.4,11649.6,2.42835
677,65,45394.5,27262.6,6478.46,3.89271
678,65,24964.1,27798.4,6126.25,4.08013
679,65,29388,29301.5,6304.96,3.98245
680,65,20896.9,29779,6281.75,3.99483
681,65,32212.3,32228,8400.81,3.14278
682,65,3302.83,33738.4,6753.49,3.75974
683,65,35357.6,33949.5,6013.1,4.14493
684,65,24743.6,34634.9,11856.2,2.3958
685,65,43668.7,34831.1,4577.57,5.24109
686,65,23388.7,34799.2,11616.5,2.43366
687,65,48139.3,34913.1,8566.19,3.09371
688,65,46794.1,35031.8,11906.1,2.3881
689,65,2671.55,35975.6,3818.6,6.14976
690,65,1675.26,37191.7,5540.2,4.44399
691,65,4918.53,37460.9,5099.21,4.77219
692,65,5900.87,40254.9,6821.96,3.72828
693,65,3649.92,42193.3,6592.19,3.8364
694,65,49446,42214,4622.83,5.19626
695,65,5871.97,44187.8,6744.21,3.76406
696,65,35593.6,44950.2,5826.84,4.257
697,65,3966.98,45210.3,9728.42,2.79481
698,65,27157.8,45409.8,2406.86,9.35169
699,65,40360.8,46005.1,5853.53,4.24051
700,65,28192.2,47020.3,7859.44,3.31756
701,65,5885.05,48546.1,11799.3,2.40465
702,65,814.487,49911,2741.09,8.29704
703,81,22298.1,675.777,14738.3,2.03373
704,81,6632.24,1032.46,10404.4,2.65091
705,81,36553.1,2223.66,5825.68,4.25772
706,81,33199.4,2438.79,3502.95,6.64268
707,81,9701.53,3489.86,6238.81,4.01796
708,81,38001.1,4173.95,7340.7,3.50868
709,81,43765.7,5380.32,12899.5,2.24681
710,81,32189.4,5303.14,9007.75,2.97129
711,81,12359.3,6701.59,9291.49,2.89862
712,81,7659.16,7403.12,21432.6,1.55527
713,81,31378.2,9236.91,7174.17,3.57578
714,81,2068.46,9277.74,8291.15,3.17639
715,81,15302.2,10879.4,5891.25,4.21746
716,81,2238.66,13459.4,9130.19,2.9394
717,81,15690.8,13889.3,7585.57,3.41527
718,81,13768.3,14162.2,7170.11,3.57745
719,81,10622,16271.6,13442,2.17814
720,81,5726.7,17002.6,7777.63,3.34604
721,81,23570.1,17664.8,11806.9,2.40347
722,81,8498.95,18243.5,7167.21,3.57865
723,81,18302.6,18538.8,3998.48,5.90346
724,81,1243.02,18850,16052,1.91017
725,81,22298.3,21087.7,2836.83,8.04056
726,81,42386.7,21540.3,4627.47,5.19171
727,81,39681.5,21834.6,9214.9,2.91781
728,81,49067.8,25031.4,11324.1,2.48196
729,81,37330.8,26722.9,5858.17,4.23766
730,81,47337.9,27068.6,11153.5,2.51126
731,81,45403.1,27275.8,6634.54,3.81592
732,81,24945.9,27839.2,6358.93,3.95402
733,81,29388.1,29288,5968.42,4.17119
734,81,20895.1,29769.9,6632.22,3.81703
735,81,32219,32202.8,8166.98,3.2155
736,81,3282.28,33720.1,6712.88,3.77871
737,81,35349.7,33956.2,6095.49,4.09751
738,81,24729.8,34642.9,11881.1,2.39195
739,81,43677.5,34832.6,4434.25,5.38904
740,81,23394.7,34784.9,11841.7,2.39805
741,81,48141.8,34908.3,8822.65,3.02115
742,81,46797.1,35046.2,11702.4,2.41992
743,81,2637.95,35922,3421.14,6.78519
744,81,1650.69,37195.3,5576.17,4.41948
745,81,4878,37419.1,4630.37,5.18887
746,81,5880.35,40248.8,7349.41,3.50526
747,81,3649.48,42193,6975.15,3.6601
748,81,49454.4,42191.6,4630.95,5.1883
749,81,5855.65,44204.2,7030.85,3.63602
750,81,35600.1,44975,6167.44,4.05712
751,81,3959.03,45204.4,10170.6,2.69859
752,81,27150.6,45425.6,2665.07,8.51374
753,81,40378.4,46004.9,6180.21,4.05005
754,81,28189.8,47021.4,8269.1,3.18325
755,81,5860.17,48523.5,12962.7,2.23852
756,81,763.682,49905,2753.85,8.26182
757,82,22302.2,671.719,14754.5,2.03207
758,82,6631.49,1031.54,10645.2,2.60395
759,82,36539.3,2234.7,5947.53,4.18359
760,82,33215.8,2412.25,3440.28,6.75124
761,82,9684.87,3489.63,6770.32,3.75195
762,82,37993.9,4165.17,7079.01,3.61551
763,82,43769.9,5382.43,12630.8,2.28291
764,82,32207.2,5301,9202.14,2.92104
765,82,12333,6723.15,8858.63,3.0113
766,82,7682.94,7384.51,22148.6,1.52032
767,82,31359.9,9232.05,7156.19,3.58321
768,82,2082.42,9278.31,8298.11,3.17423
769,82,15278,10884.3,5642.9,4.37484
770,82,2217.96,13435.1,8916.65,2.99558
771,82,15679.4,13893.3,7689.43,3.37741
772,82,13774,14178.5,7373.2,3.49593
773,82,10612.1,16282,13653.8,2.15275
774,82,5743.55,16994.4,7716.7,3.36764
775,82,23549.7,17661.5,11571.9,2.44089
776,82,8485.7,18244.3,7039.56,3.6323
777,82,18304.8,18530.1,4140.64,5.72384
778,82,1224.53,18869.6,15360.3,1.97272
779,82,22285.2,21111.7,2729.48,8.32935
780,82,42373.3,21547.8,4807.35,5.02213
781,82,39666.5,21833.3,9413.35,2.86873
782,82,49063.3,25013.9,11024.1,2.53407
783,82,37326,26693,6481.94,3.89096
784,82,47385.7,27012.2,11166.9,2.50893
785,82,45395.5,27271,6691.99,3.78855
786,82,24964.7,27792.9,6490.06,3.88687
787,82,29400,29313.1,6051.4,4.12273
788,82,20883.2,29765.3,6592.19,3.8364
789,82,32222.1,32231.7,8183.22,3.21031
790,82,3287.8,33736,6340.36,3.96375
791,82,35344,33985.1,6217.93,4.02933
792,82,24746.6,34636.2,11682.1,2.42315
793,82,43679.6,34836.1,4445.85,5.37671
794,82,23390,34794.9,11513.3,2.45045
795,82,48123.9,34927.4,8645.68,3.07077
796,82,46782.7,35042.1,11357.2,2.47637
797,82,2630.46,35953.9,3283.62,7.04064
798,82,1624.25,37212.1,5619.69,4.39025
799,82,4900.27,37437.3,4878.14,4.95879
800,82,5879.64,40243,7195.06,3.5672
801,82,3624.34,42194.6,6794.69,3.74074
802,82,49438.1,42196.9,4621.09,5.19796
803,82,5864.26,44202.7,6737.25,3.7673
804,82,35583.4,44987.5,5871.52,4.22948
805,82,3966.62,45210.5,9799.79,2.7787
806,82,27175.8,45416.1,2507.25,9.00549
807,82,40333.2,46014.1,6070.54,4.11173
808,82,28198.9,47014.2,8746.06,3.04238
809,82,5853.16,48521,12707.4,2.27247
810,82,779.436,49916.8,2750.95,8.26979
811,83,22321.6,689.23,14130.8,2.09825
812,83,6633.39,1010.34,10615,2.60972
813,83,36554.3,2228.85,5974.22,4.16775
814,83,33223.9,2419.57,3085.17,7.44918
815,83,9701.79,3484.09,6989.07,3.65404
816,83,37976,4193.25,7255.99,3.54244
817,83,43778.6,5385.43,11947.3,2.3818
818,83,32197.5,5312.46,9010.65,2.97053
819,83,12340,6734.83,8755.35,3.03979
820,83,7679.33,7378.76,22053.4,1.52484
821,83,31355.7,9254.16,6951.94,3.67024
822,83,2085.09,9282.64,8016.69,3.26441
823,83,15316.2,10873.9,5691.06,4.34326
824,83,2220.92,13438.3,9938.47,2.74806
825,83,15691.6,13913.9,7540.89,3.43187
826,83,13765.8,14190.5,7044.2,3.63031
827,83,10626.7,16281.4,13826.1,2.13265
828,83,5743.25,16998,7687.11,3.37825
829,83,23547.4,17668.7,11531.8,2.44741
830,83,8485.08,18269.6,7018.09,3.64151
831,83,18316.5,18532.3,3864.44,6.08483
832,83,1261.11,18867.6,15826.8,1.92996
833,83,22267.5,21089.8,2622.14,8.64168
834,83,42394.9,21531.4,4866.53,4.96905
835,83,39672.1,21839.7,9513.73,2.84466
836,83,49087.7,25041.7,11128.6,2.51562
837,83,37312.8,26708.8,6707.07,3.78143
838,83,47357.8,27061.8,11667,2.42556
839,83,45378.1,27239,6847.49,3.71671
840,83,24970.8,27796.8,6218.51,4.02902
841,83,29375.5,29297.9,5947.53,4.18359
842,83,20899.9,29788.3,6700.69,3.78444
843,83,32210.8,32217.6,8213.4,3.20074
844,83,3313.62,33730,6914.22,3.68686
845,83,35336.9,33965.7,6167.44,4.05712
846,83,24734.8,34635.5,11839.4,2.39841
847,83,43669.1,34864.1,4422.06,5.40206
848,83,23393.9,34774,11617.1,2.43357
849,83,48125.2,34920,8724.01,3.04856
850,83,46785,35023.8,11811.5,2.40275
851,83,2630.12,35934.5,3215.73,7.17476
852,83,1686.27,37211.2,5537.88,4.44559
853,83,4926.12,37436.8,4902.51,4.9374
854,83,5896.08,40260,7432.38,3.473
855,83,3656.21,42197.9,7056.38,3.62512
856,83,49444.5,42193.3,4999.99,4.85392
857,83,5860.12,44192.2,7370.3,3.49707
858,83,35584.7,44977.4,6069.96,4.11207
859,83,3974.18,45221.9,9337.33,2.88729
860,83,27166.2,45408.2,2561.79,8.82872
861,83,40332.5,46007.9,6039.79,4.12943
862,83,28202.9,47032.6,8569.67,3.09269
863,83,5861.72,48535.4,13316.1,2.1936
864,83,781.486,49921.1,2804.33,8.12565
865,84,22300.3,677.875,14145.3,2.09665
866,84,6627.64,1005.88,10441.5,2.64353
867,84,36572,2246,6057.2,4.11939
868,84,33180.5,2426.09,3313.79,6.98279
869,84,9697.86,3474.82,6693.73,3.78772
870,84,37973.9,4191.47,7368.56,3.49775
871,84,43775.8,5380.92,12141.7,2.35258
872,84,32204.8,5301.66,8907.95,2.99792
873,84,12350.1,6692.45,8757.67,3.03914
874,84,7687.03,7396.02,21734.9,1.54025
875,84,31348,9231.96,7310.53,3.52061
876,84,2065.01,9281.04,8359.04,3.15548
877,84,15274.8,10869.2,5479.27,4.48623
878,84,2231.51,13452.9,9250.88,2.90876
879,84,15692.3,13913.9,7713.8,3.36867
880,84,13781.3,14214.3,7245.54,3.54665
881,84,10626.2,16285.9,13645.1,2.15378
882,84,5747.2,16999.6,7899.48,3.30383
883,84,23557.3,17669.4,12095.8,2.35939
884,84,8476.95,18261.1,6654.85,3.80619
885,84,18304,18526.1,4303.69,5.53232
886,84,1245.53,18859.4,15698.6,1.94147
887,84,22299.3,21104,2875.7,7.94127
888,84,42394.9,21533,4692.46,5.12895
889,84,39670,21844.9,9790.51,2.78079
890,84,49062.8,25032.6,11025.9,2.53376
891,84,37315.9,26717.4,6009.04,4.1473
892,84,47347.7,27058.2,12013.4,2.37175
893,84,45394.3,27304.3,6841.69,3.71933
894,84,24973.9,27780.5,6618.3,3.82375
895,84,29378.5,29334.2,6122.77,4.08209
896,84,20885.1,29769.7,6478.46,3.89271
897,84,32208.1,32241.2,8154.21,3.21958
898,84,3306.96,33732.2,6834.15,3.72275
899,84,35328,33978.2,5862.81,4.23481
900,84,24730,34635,11843.4,2.39778
901,84,43686,34837.9,4518.96,5.30047
902,84,23394.7,34777.6,11499.3,2.45273
903,84,48117.7,34890.7,8660.77,3.06646
904,84,46787.1,35037.9,11699.5,2.42038
905,84,2652.67,35977.6,3371.23,6.87549
906,84,1642.52,37205.1,5690.48,4.34364
907,84,4925.14,37447,5103.27,4.76891
908,84,5902.93,40237.9,7281.52,3.53218
909,84,3649.31,42209.8,6783.67,3.7458
910,84,49452.1,42207.2,4589.17,5.22951
911,84,5869.88,44181.7,7324.46,3.51509
912,84,35584.2,44972.5,5944.63,4.18532
913,84,3945.48,45220.8,9723.78,2.79586
914,84,27172.8,45414,2681.9,8.46471
915,84,40377.1,45990.9,5939.41,4.18844
916,84,28170.1,47017.5,8386.89,3.147
917,84,5871.01,48533.8,12375.5,2.31862
918,84,782.746,49885.3,3060.22,7.50427
919,85,22284.6,670.703,13823.2,2.13298
920,85,6617.77,1028.13,10236.7,2.68489
921,85,36544.6,2218.25,6038.05,4.13044
922,85,33201.5,2437.86,3131.59,7.349
923,85,9705.63,3487.87,6791.21,3.74234
924,85,37980.7,4182.21,7305.89,3.52246
925,85,43775.8,5377.37,12187.5,2.34583
926,85,32207.2,5313.05,9051.85,2.95971
927,85,12329.5,6719.77,8773.91,3.03462
928,85,7688.12,7397.92,21976.9,1.52851
929,85,31379.7,9243.71,6846.91,3.71697
930,85,2066.12,9269.15,7921.53,3.29633
931,85,15315.9,10865.7,5458.38,4.50092
932,85,2221.7,13437.4,9554.35,2.83506
933,85,15682.6,13908.3,7491.57,3.45042
934,85,13778.6,14194.9,7391.19,3.48893
935,85,10612.3,16276.6,12968.5,2.23777
936,85,5753.2,17007.3,8176.84,3.21235
937,85,23549.1,17659.8,12159.7,2.34993
938,85,8520.78,18287.8,7300.09,3.52477
939,85,18310.6,18512.6,4163.85,5.69567
940,85,1248.66,18862.5,15616.2,1.94896
941,85,22278.3,21097.3,3087.49,7.4441
942,85,42382.2,21513.2,5022.62,4.835
943,85,39670.5,21830.2,9589.74,2.82676
944,85,49066.3,25029.4,11191.8,2.50461
945,85,37309.3,26702.9,6408.25,3.92845
946,85,47345.5,27038.4,12104.5,2.3581
947,85,45400.4,27245,6758.72,3.75732
948,85,24969.9,27791.8,6646.73,3.81007
949,85,29399.8,29297.8,6611.91,3.82683
950,85,20899.2,29760.4,6553.89,3.85515
951,85,32216.2,32231.2,8201.79,3.20441
952,85,3301.35,33744,6515.01,3.8744
953,85,35354.7,33946.6,6097.23,4.09652
954,85,24724,34641.2,11884,2.3915
955,85,43682,34813.3,4328.06,5.50493
956,85,23398.9,34779.6,10921.4,2.55255
957,85,48130.1,34901.6,8874.3,3.00704
958,85,46795.6,35045.9,11742.5,2.41358
959,85,2627.45,35945.6,3128.11,7.35641
960,85,1637.64,37184.1,5774.62,4.2897
961,85,4899.07,37447.2,5136.93,4.74194
962,85,5882.11,40234.1,7267.59,3.53777
963,85,3632.4,42196.2,6946.14,3.67278
964,85,49436.6,42192.1,4668.09,5.15228
965,85,5870.15,44212.3,7545.53,3.43014
966,85,35559.6,44961,6463.95,3.90003
967,85,3956.59,45226.3,10011,2.73236
968,85,27159.4,45416.1,2771.26,8.21431
969,85,40352.8,46007.9,5994.53,4.15579
970,85,28192.7,47025,8343.95,3.1601
971,85,5873.44,48539.2,12700.4,2.27342
972,85,769.291,49901.1,2796.79,8.14569
973,86,22276,661.125,14228.8,2.08748
974,86,6618.74,1026.41,10676,2.59809
975,86,36563.9,2233.49,6005.56,4.14934
976,86,33193,2429.48,3475.68,6.68945
977,86,9701.34,3496,7168.95,3.57793
978,86,37998,4178.88,7043.62,3.63056
979,86,43789.2,5382.56,12033.7,2.36869
980,86,32210.7,5317.48,9199.23,2.92177
981,86,12334.6,6747.89,8684.56,3.0597
982,86,7677.48,7400.61,22799.6,1.49032
983,86,31384,9248.74,7341.28,3.50845
984,86,2065.75,9272.4,7885.56,3.30859
985,86,15311.8,10865.9,5606.93,4.39878
986,86,2235.15,13442.5,9208.52,2.91942
987,86,15677.7,13903.4,7996.96,3.27097
988,86,13766.9,14176.3,7443.99,3.46855
989,86,10620.2,16257.4,12954,2.23966
990,86,5738.19,16985.6,8090.38,3.24021
991,86,23603.9,17650.1,11462.2,2.45885
992,86,8521.73,18250.8,7290.8,3.52847
993,86,18293.9,18515.1,3995.58,5.90726
994,86,1234.07,18846,15543.1,1.95568
995,86,22299,21123.8,2773.58,8.20802
996,86,42386.7,21532.9,4627.47,5.19171
997,86,39681.6,21822.6,9296.72,2.89733
998,86,49072.3,25017.8,11314.8,2.48353
999,86,37310,26710.2,7034.33,3.63453
1000,86,47358.4,27050.2,11731.4,2.41533
1001,86,45398.9,27248.8,6878.83,3.70262
1002,86,24954.3,27808.4,6709.4,3.78034
1003,86,29390.3,29311.1,6678.64,3.79486
1004,86,20874.2,29764.5,6512.11,3.87585
1005,86,32212.3,32218,8583.01,3.08882
1006,86,3293.42,33706.5,6734.35,3.76866
1007,86,35358.9,33973.7,6058.36,4.11872
1008,86,24750.3,34638.4,11387.9,2.47121
1009,86,43686.4,34813.6,4523.02,5.2963
1010,86,23392.8,34789.8,11295.7,2.48678
1011,86,48137.6,34906.9,8491.33,3.11569
1012,86,46800.3,35054.7,11898.5,2.38926
1013,86,2667.35,35947.6,3382.84,6.85426
1014,86,1642.74,37195.3,5816.98,4.26314
1015,86,4902.2,37459.4,5258.78,4.64715
1016,86,5879.31,40239.7,6806.3,3.73543
1017,86,3651.54,42191.6,6730.86,3.77028
1018,86,49423.6,42191.5,4462.1,5.35955
1019,86,5859.28,44200.3,6947.3,3.67227
1020,86,35582.5,44961.1,6394.32,3.93563
1021,86,3950.02,45222,10003.5,2.73398
1022,86,27157,45408.3,2847.85,8.01213
1023,86,40330.3,46022,6093.17,4.09883
1024,86,28195.8,47022.2,8623.63,3.07709
1025,86,5856.84,48531.3,12477.6,2.30417
1026,86,720.59,49905,2684.22,8.458
