"id","frame","x [nm]","y [nm]","intensity [photon]","uncertainty_xy [nm]"
1,2,6693,692.25,4850.86,4.98297
2,2,36685.6,1831.63,4056.51,5.82864
3,2,33345.2,2041.86,3902.16,6.03255
4,2,9686.22,3104.79,3478,6.68544
5,2,38069.1,3822.72,4398.27,5.42768
6,2,43892.6,5013.75,4477.77,5.34313
7,2,32304.4,5037.41,4281.06,5.55804
8,2,12329.5,6417.11,3442.02,6.74817
9,2,7739.13,7077.16,10013.9,2.73174
10,2,31485.5,8889.98,3744.91,6.25745
11,2,2009.88,8944.73,3165.25,7.27819
12,2,15343.5,10568.1,3409.53,6.80596
13,2,2215.72,13071.2,3400.25,6.82267
14,2,15774.6,13552.3,3193.1,7.22072
15,2,13767.8,13855.5,3907.38,6.02539
16,2,10621.6,16017.5,4285.12,5.5534
17,2,5742.65,16650.2,3151.32,7.30731
18,2,23725.1,17311.7,4996.51,4.85685
19,2,8460.95,17961.3,2914,7.84604
20,2,18335.1,18252,2598.35,8.71438
21,2,1239.15,18618.9,6964.12,3.66491
22,2,22356.5,20846.1,1995.47,11.1332
23,2,42497.2,21288.8,3291.16,7.02608
24,2,39855.8,21545.2,5474.05,4.48989
25,2,49266.5,24778.7,3588.25,6.50099
26,2,37468.4,26506.6,5403.26,4.54024
27,2,47484.6,26831.5,3642.21,6.41475
28,2,45560.1,27046.8,3909.12,6.023
29,2,25005.9,27556.8,3642.21,6.41475
30,2,29477.1,29060.3,2875.12,7.94273
31,2,20964.6,29486.1,1884.06,11.7492
32,2,32299.2,32017.5,4647.78,5.17191
33,2,3293.14,33427.7,3827.89,6.13649
34,2,35504.4,33692.9,1885.8,11.739
35,2,24775.5,34386.6,4023.43,5.87102
36,2,43838.6,34602.2,2475.91,9.11054
37,2,23442.2,34511.7,5127.64,4.74935
38,2,48295.7,34663.1,3829.63,6.134
39,2,46918.6,34824.6,6068.22,4.11306
40,2,2639.96,35730.9,3585.35,6.5057
41,2,1681.14,36932.9,1801.09,12.2573
42,2,4925.14,37220,3315.53,6.97948
43,2,5872.1,40033.9,3596.95,6.48691
44,2,3665.12,41924.1,4252.63,5.59073
45,2,5871.25,44032.2,2771.26,8.21431
46,2,35660.4,44809.7,2862.94,7.97358
47,2,3958.01,44972.1,3959.02,5.95559
48,2,27245,45261.1,2434.72,9.25278
49,2,40463.9,45810.7,1673.43,13.1374
50,2,28260.7,46786.6,1823.14,12.1178
51,2,5898.25,48320.6,6551.57,3.85629
52,21,6654.36,699.027,4059.99,5.82421
53,21,36689.2,1812.05,3240.68,7.12482
54,21,33330.4,2036.68,3547.05,6.56858
55,21,9651.91,3090.56,2800.85,8.13489
56,21,38064.5,3816.84,3736.79,6.26958
57,21,43906.4,5013.25,3542.41,6.57629
58,21,32305.6,5024.49,3366.59,6.88403
59,21,12334.1,6417.11,2956.36,7.74358
60,21,7726.14,7080.69,8106.05,3.23511
61,21,31487,8891.33,3148.42,7.31341
62,21,2001.33,8959.88,2689.44,8.44293
63,21,15371.3,10597.3,2806.07,8.12105
64,21,2205.34,13086.1,2744.57,8.2874
65,21,15768.9,13546.7,2668.56,8.50355
66,21,13760.7,13868.1,3228.49,7.14911
67,21,10637,16012.6,3733.89,6.27392
68,21,5738.69,16676.6,2783.44,8.1814
69,21,23718.1,17308.4,4374.48,5.45358
70,21,8468.24,17962.5,2402.22,9.36839
71,21,18338.3,18269.3,2213.06,10.1086
72,21,1270.42,18607,5890.67,4.21781
73,21,22330.5,20866.7,1725.65,12.7616
74,21,42519.9,21271.6,2540.9,8.89552
75,21,39850.7,21543.8,4783.56,5.04383
76,21,49282.2,24756.2,2864.1,7.97063
77,21,37443.7,26519.8,4338.51,5.49328
78,21,47479.4,26822.7,2884.41,7.91941
79,21,45542,27018.8,3231.4,7.14331
80,21,24990.2,27571.6,3274.33,7.05865
81,21,29483.1,29056.3,2381.33,9.44438
82,21,20932.9,29472.5,1725.65,12.7616
83,21,32298.6,32022.7,4075.65,5.80441
84,21,3285.37,33458.1,3310.31,6.98941
85,21,35545.8,33704.9,1599.16,13.7139
86,21,24779,34360.9,3204.7,7.19707
87,21,43820.7,34581.1,2231.63,10.0304
88,21,23444.2,34501,4290.35,5.54745
89,21,48282.1,34653.1,3321.33,6.96849
90,21,46920.5,34810.4,5061.49,4.80288
91,21,2625.17,35729.9,2750.95,8.26979
92,21,1697.55,36911.9,1432.63,15.2236
93,21,4906.21,37236.7,2774.74,8.20487
94,21,5871.53,40045.6,3002.78,7.63459
95,21,3643.95,41923,3220.37,7.16541
96,21,5883.34,44034.9,2283.85,9.8173
97,21,35664.9,44787.7,2467.79,9.13822
98,21,3962.28,44954,3324.23,6.963
99,21,27245.9,45266.9,2008.23,11.067
100,21,40471.4,45780,1260.88,17.1978
101,21,28252.1,46779,1508.06,14.4985
102,21,5889.56,48314.7,5794.93,4.27692
103,22,6656.68,671.98,3992.68,5.91106
104,22,36681.4,1832.79,3102,7.41252
105,22,33338.7,2045.29,3448.99,6.73593
106,22,9663.5,3124.66,2685.96,8.45297
107,22,38063.6,3824.98,3826.73,6.13814
108,22,43887.3,5008.99,3457.11,6.7217
109,22,32318.1,5032.21,3448.41,6.73694
110,22,12349.9,6431.98,2814.78,8.09809
111,22,7723.99,7087.88,8254.59,3.18778
112,22,31464.3,8875.49,3090.98,7.43649
113,22,2015,8978.69,2742.25,8.29383
114,22,15415.5,10601.6,2969.7,7.71189
115,22,2210.36,13095.9,2598.93,8.71259
116,22,15762.4,13536.6,2732.38,8.32125
117,22,13776.5,13859.5,3303.35,7.00269
118,22,10629.4,16022.7,3730.99,6.27827
119,22,5743.09,16640.8,2595.44,8.72334
120,22,23717.4,17314,4529.41,5.28977
121,22,8471.81,17963.8,2325.63,9.65366
122,22,18334.4,18258.9,2149.23,10.3877
123,22,1261.04,18618.3,6223.15,4.02648
124,22,22355.7,20865.7,1704.77,12.9092
125,22,42500.6,21276.2,2624.46,8.63466
126,22,39852.9,21553.1,4594.98,5.22374
127,22,21419.2,24041.6,3871.99,6.07429
128,22,49291.3,24790.9,3111.28,7.39246
129,22,37424,26512.3,4217.81,5.63136
130,22,47501.9,26838.8,2963.9,7.72563
131,22,45536.8,27032.6,3145.52,7.31952
132,22,24997.8,27579.4,3019.02,7.59723
133,22,29469.9,29055.4,2399.9,9.37677
134,22,20931.3,29473.7,1586.4,13.8184
135,22,32312,32039.9,3601.01,6.48036
136,22,3276.19,33452.6,3248.22,7.10987
137,22,35564.3,33714.5,1506.32,14.5144
138,22,24812.2,34373.1,2933.73,7.79795
139,22,43815.5,34593.2,2385.4,9.4295
140,22,23428.5,34532.9,4131.94,5.73448
141,22,48310.1,34659.3,3197.16,7.21242
142,22,46922,34824.2,4955.89,4.89128
143,22,2614.83,35736.2,2714.98,8.37012
144,22,1690.78,36907.5,1463.38,14.919
145,22,4908.39,37244,2691.19,8.43793
146,22,5844.77,40034.1,2650.57,8.5565
147,22,3657.54,41929.7,3115.35,7.38372
148,22,5879.71,44048.7,2235.11,10.0159
149,22,35631.5,44787.9,2444,9.22031
150,22,3959.77,44962.7,3155.38,7.29879
151,22,27220.8,45226.9,1977.48,11.228
152,22,40467.3,45781.3,1340.37,16.2213
153,22,28266.8,46792,1497.62,14.5946
154,22,5871.85,48342.5,5615.63,4.39296
155,23,6672,671.105,3794.81,6.18407
156,23,36683.1,1812.28,3062.54,7.49911
157,23,33349.2,2048.47,3348.02,6.9184
158,23,9668.96,3119.44,2730.06,8.32773
159,23,38061,3819.82,3391.54,6.83842
160,23,43889.5,5023.34,3518.04,6.61713
161,23,32311.3,5041.24,3451.89,6.73084
162,23,12342.3,6433.42,2562.37,8.82688
163,23,7734.23,7097.34,7843.2,3.32317
164,23,31470.2,8915.03,3013.22,7.61053
165,23,2012.91,8981.82,2497.38,9.03828
166,23,15346.7,10576.8,2596.02,8.72155
167,23,2209.79,13082.8,2504.93,9.01318
168,23,15778.7,13552.1,2606.47,8.68941
169,23,13769.9,13882.8,3013.8,7.6092
170,23,10609,16011.3,3484.38,6.67444
171,23,5748.97,16675.3,2460.83,9.16208
172,23,23684.7,17320.7,4115.69,5.75447
173,23,8477.12,17956.4,2232.21,10.028
174,23,18344.5,18226.9,2061.04,10.8018
175,23,1210.64,18625.5,5617.37,4.3918
176,23,22318.2,20841.7,1583.49,13.8424
177,23,42510.4,21258.9,2554.83,8.85086
178,23,39860.3,21530.1,4529.99,5.28918
179,23,49274.1,24774.4,2693.51,8.43126
180,23,37453,26482.7,4158.05,5.70268
181,23,47497.2,26825.7,2921.54,7.82758
182,23,45538.3,27023.3,2882.09,7.92523
183,23,24995.4,27575,3121.73,7.37004
184,23,29452.6,29068.9,2428.33,9.27524
185,23,20927.7,29481.8,1448.88,15.0611
186,23,32307,32024.1,3609.72,6.46637
187,23,3272.49,33464.1,3218.05,7.17008
188,23,35516.1,33689.4,1495.88,14.6107
189,23,24812.1,34360.4,3187.88,7.23142
190,23,43824.1,34591.7,1996.05,11.1302
191,23,23434.5,34541,3952.06,5.96489
192,23,48310.7,34668.1,3166.41,7.27578
193,23,46931.8,34819.7,5046.99,4.81481
194,23,2619.37,35723.7,2465.47,9.14615
195,23,1686.54,36918.5,1435.53,15.1943
196,23,4914.86,37236.2,2815.94,8.09504
197,23,5864.53,40039.9,2549.6,8.86755
198,23,3663.38,41907.5,3067.19,7.48881
199,23,5861.33,44057,2077.86,10.7201
200,23,35652.9,44794.3,2265.28,9.89196
201,23,3965.25,44952.3,2818.84,8.08743
202,23,27252,45250.4,1885.22,11.7424
203,23,40472.5,45780.6,1426.83,15.2826
204,23,28277,46802.9,1462.8,14.9246
205,23,5890.11,48327.3,5341.75,4.58505
206,41,6681.55,703.746,4148.77,5.71394
207,41,36680.9,1830.79,3037.01,7.55634
208,41,33345.4,2036.99,3448.41,6.73694
209,41,9658.21,3107.55,2861.2,7.97801
210,41,38073,3814.77,3492.51,6.66051
211,41,43896.1,5006.45,3338.74,6.93573
212,41,32303.6,4990.32,3462.91,6.71159
213,41,12332.4,6404.97,2988.85,7.66693
214,41,7724.57,7078.41,7973.17,3.27892
215,41,31463.8,8906.9,3088.07,7.44283
216,41,2025.49,8965.69,2655.79,8.54105
217,41,15360.9,10545.2,2941.85,7.77834
218,41,2213,13084.3,2818.84,8.08743
219,41,15766.4,13529.6,2718.46,8.36029
220,41,13771.1,13856.1,3248.22,7.10987
221,41,10633.2,16019.5,3591.73,6.49535
222,41,5739.12,16654.7,2779.38,8.19234
223,41,23713.9,17308.7,4442.95,5.37979
224,41,8466.17,17958.5,2300.1,9.75295
225,41,18327.3,18247.1,2022.74,10.9927
226,41,1262.69,18609.4,5838.44,4.24981
227,41,22361.7,20852.3,1560.86,14.0326
228,41,42504.6,21270.9,2616.91,8.65753
229,41,39855.2,21540.8,4585.69,5.23298
230,41,49312.8,24795.5,2996.98,7.64803
231,41,37458.6,26484.2,4495.75,5.3244
232,41,47497.2,26841.8,3142.62,7.32564
233,41,45539.1,27005.5,2972.02,7.70641
234,41,24993.1,27569.9,3082.27,7.45554
235,41,29450.8,29087.3,2355.22,9.54125
236,41,20940.3,29461.2,1712.31,12.8555
237,41,32309.7,32020.7,3600.43,6.48129
238,41,3304.55,33460.8,3325.98,6.95972
239,41,35515.9,33711.1,1602.64,13.6857
240,41,24781,34379.3,3392.7,6.83632
241,41,43836.1,34579.5,2220.02,10.0792
242,41,23446.1,34509.5,4284.54,5.55406
243,41,48295.4,34660.4,3240.68,7.12482
244,41,46925.5,34813.6,4741.2,5.08301
245,41,2603.8,35740.8,2916.9,7.83893
246,41,1724.86,36938.8,1406.52,15.4927
247,41,4900.71,37255.5,2798.53,8.14106
248,41,5894.68,40032.7,2680.16,8.46976
249,41,3636.14,41905,3302.19,7.00491
250,41,5867.44,44048.5,2174.19,10.2767
251,41,35637.7,44803.4,2271.09,9.86849
252,41,3981.51,44945.6,3011.48,7.61453
253,41,27253,45256.5,1918.88,11.549
254,41,40457.3,45794.3,1449.46,15.0553
255,41,28272.5,46792.4,1523.73,14.3569
256,41,5875.52,48327.8,5330.15,4.59363
257,42,6678.24,679.473,4357.65,5.47207
258,42,36703.1,1815.95,3138.56,7.33422
259,42,33348.5,2047.9,3275.49,7.0564
260,42,9687.75,3114.02,2893.11,7.89767
261,42,38056.2,3813.42,3623.64,6.44414
262,42,43899.4,5010.48,3422.3,6.78312
263,42,32323.3,5034.78,3783.79,6.20012
264,42,12342.8,6430.74,2814.2,8.09962
265,42,7733.53,7071.59,8201.21,3.2046
266,42,31487.3,8882.6,3028.31,7.57606
267,42,2041.07,8971.46,2515.95,8.97677
268,42,15342.7,10571.1,2915.16,7.8432
269,42,2208.18,13078.2,2776.48,8.20017
270,42,15769.4,13547.1,2715.56,8.36848
271,42,13768.4,13840.5,3180.33,7.24694
272,42,10634.9,16032.3,3608.56,6.46823
273,42,5751.02,16667.3,2928.51,7.81062
274,42,23723.1,17310.4,4537.53,5.28149
275,42,8476.84,17955.1,2436.46,9.24667
276,42,18341.6,18228.4,2227.57,10.0474
277,42,1279.11,18621.1,5933.6,4.19191
278,42,22377,20816.1,1733.2,12.7092
279,42,42503.9,21264.1,2645.93,8.57028
280,42,39853.4,21540.1,4546.23,5.27265
281,42,49290.8,24768.5,2943.59,7.77415
282,42,37456.4,26479.6,4209.69,5.64094
283,42,47484.2,26820.6,3099.1,7.41881
284,42,45517.7,27008.8,3097.36,7.42259
285,42,25002.4,27588.3,3191.94,7.2231
286,42,29473.1,29049.4,2385.4,9.4295
287,42,20954.3,29496,1613.09,13.6018
288,42,32302.8,32033.4,3621.9,6.44691
289,42,3308.14,33432.3,3329.46,6.95316
290,42,35512.1,33720.4,1676.33,13.1159
291,42,24796.7,34378.5,3148.42,7.31341
292,42,43808.2,34573.1,2240.33,9.99422
293,42,23451.9,34514.6,4243.35,5.6015
294,42,48307.4,34629.7,2913.42,7.84747
295,42,46931.5,34808.7,4835.78,4.99647
296,42,2640.85,35734.9,2779.96,8.19077
297,42,1681.54,36914.2,1510.96,14.4721
298,42,4905.41,37254.7,2795.63,8.14878
299,42,5847.68,40042,2902.4,7.87464
300,42,3648.43,41912.4,3271.43,7.0643
301,42,5853.33,44041.4,2289.07,9.79651
302,42,35656.2,44815.5,2315.19,9.69401
303,42,3984.49,44971.1,2649.99,8.55822
304,42,27244.8,45269.4,1863.75,11.8694
305,42,40476.8,45807.8,1400.72,15.5539
306,42,28248.7,46778.9,1497.62,14.5946
307,42,5882.5,48314.9,5259.36,4.64671
308,43,6678.35,701.852,3887.65,6.05254
309,43,36677.9,1842.39,3008.58,7.6212
310,43,33328.6,2020.16,3580.7,6.51325
311,43,9672.35,3109.61,2805.49,8.12258
312,43,38065.3,3860.23,3677.02,6.36045
313,43,43904.2,5012.13,3394.44,6.83316
314,43,32306.1,5008.06,3634.67,6.42665
315,43,12357.2,6424.11,2902.98,7.8732
316,43,7751.4,7088.61,8401.98,3.14243
317,43,31471.9,8898.13,2863.52,7.9721
318,43,2043.75,8947.51,2599.51,8.71081
319,43,15387.7,10601,2924.44,7.8205
320,43,2213.75,13097.4,2785.19,8.17672
321,43,15777.9,13555,2849.01,8.00915
322,43,13789.9,13861.6,3258.09,7.09042
323,43,10624,16032.9,3711.84,6.30716
324,43,5746.08,16656.7,2801.43,8.13335
325,43,23721.1,17305.3,4418.58,5.40579
326,43,8477.23,17959.1,2361.6,9.51737
327,43,18345.6,18224.9,2354.06,9.5456
328,43,1215.85,18624.9,6335.14,3.9665
329,43,22351.5,20834.9,1624.11,13.5144
330,43,42495.2,21254.5,2705.11,8.39809
331,43,39856.5,21526.3,4651.84,5.16797
332,43,49276.2,24805.4,2871.64,7.95152
333,43,37448.1,26484.7,4405.81,5.41953
334,43,47485.8,26814.8,3042.81,7.54325
335,43,45543.5,26999,3155.96,7.29758
336,43,25038.1,27586.4,3086.91,7.44537
337,43,29472.2,29061,2371.47,9.48072
338,43,20906.8,29463.2,1557.38,14.0624
339,43,32288,32026.1,3810.48,6.16143
340,43,3295.15,33450.8,3395.6,6.83106
341,43,35563.5,33705.4,1620.63,13.5418
342,43,24781.4,34347.1,3437.96,6.75533
343,43,43816.4,34592.1,2263.54,9.89902
344,43,23460.4,34515.6,4473.7,5.34737
345,43,48296.5,34624.5,3161.19,7.28666
346,43,46915.5,34803.5,4924.56,4.91823
347,43,2651.71,35720.8,2862.36,7.97505
348,43,1719.33,36928.7,1512.7,14.4563
349,43,4904.81,37236.5,2807.81,8.11644
350,43,5869.37,40030.1,2789.25,8.16583
351,43,3662.34,41916.2,3399.67,6.82372
352,43,5875.35,44062,2185.79,10.2259
353,43,35677,44819.2,2460.25,9.16407
354,43,3976.21,44956.6,3133.91,7.34407
355,43,27242.3,45220.6,1868.4,11.8417
356,43,40459.5,45781.5,1346.75,16.1478
357,43,28241.1,46759.5,1546.36,14.1574
358,43,5879.57,48338.7,5360.32,4.57142
359,44,6646.55,708.418,3966.57,5.94554
360,44,36678,1829.2,3005.68,7.62789
361,44,33350.5,2022.98,3433.32,6.76354
362,44,9691.63,3104.64,2743.99,8.28901
363,44,38062.7,3860.61,3645.11,6.41019
364,44,43904.4,4993.91,3289.42,7.02943
365,44,32295.6,5021.06,3575.48,6.52177
366,44,12345.8,6418.23,2688.28,8.44628
367,44,7724.04,7097.54,7927.33,3.29436
368,44,31472.2,8895.45,2945.33,7.76996
369,44,2008.13,8956.46,2456.19,9.17806
370,44,15366.6,10584.7,2665.65,8.51204
371,44,2199.13,13082.8,2760.81,8.24274
372,44,15767.2,13537,2717.88,8.36193
373,44,13760.6,13881.1,3183.81,7.23977
374,44,10633.8,16006.4,3581.86,6.51136
375,44,5757.12,16655.9,2780.54,8.18921
376,44,23718.1,17306.5,4423.8,5.4002
377,44,8470.11,17950.7,2297.78,9.76209
378,44,18342.3,18254.2,2233.95,10.0208
379,44,1181.25,18592.7,5830.9,4.25448
380,44,22334.3,20804.9,1751.77,12.5822
381,44,42496.4,21240.4,2594.28,8.72693
382,44,39857.1,21539.3,4758.02,5.06736
383,44,49297.3,24797.6,2832.19,8.0526
384,44,37458.3,26490.4,4134.84,5.73093
385,44,47466.2,26808.7,2987.69,7.66964
386,44,45543.2,27008,3095.04,7.42764
387,44,25007,27587.6,3120.57,7.37252
388,44,29462.9,29082.1,2410.93,9.33712
389,44,20979.9,29496.5,1561.44,14.0277
390,44,32283.5,32019.9,3792.49,6.18744
391,44,3308.49,33431.1,3248.22,7.10987
392,44,35538.6,33710,1542.3,14.1928
393,44,24773.4,34349,3176.85,7.25413
394,44,43820,34579.4,2104.56,10.5931
395,44,23449.3,34523.7,4346.63,5.48426
396,44,48290,34622.6,3115.35,7.38372
397,44,46922.4,34826.3,4878.72,4.95828
398,44,2638.98,35735.7,2916.9,7.83893
399,44,1684.48,36938.3,1481.95,14.7412
400,44,4935.98,37210.6,2811.88,8.10573
401,44,5858.39,40019.2,2637.22,8.59626
402,44,3662.22,41955.5,3226.75,7.1526
403,44,5882.9,44065.1,2199.14,10.1681
404,44,35654.7,44832.6,2366.25,9.50009
405,44,3969.4,44962,2847.27,8.01362
406,44,27244.8,45222.5,2054.07,10.836
407,44,40457.9,45806.7,1375.19,15.8291
408,44,28260.5,46788.3,1522.57,14.3673
409,44,5889.61,48339.6,5283.15,4.62872
410,61,6680.33,699.301,4233.48,5.61299
411,61,36690.6,1817.59,3438.54,6.75431
412,61,33335.1,2021.91,3663.1,6.38205
413,61,9694.66,3101.6,2851.91,8.00171
414,61,38064.7,3858.49,3916.67,6.0127
415,61,43894.6,5007.06,3843.56,6.11423
416,61,32299,5027.06,3942.78,5.97735
417,61,12358.3,6422.14,3017.86,7.59989
418,61,7733.75,7081.38,8197.73,3.2057
419,61,31456.9,8905.12,3258.67,7.08928
420,61,2066.22,8944.03,2812.46,8.1042
421,61,15379.5,10585.2,3039.33,7.55109
422,61,2191.49,13115.8,2850.17,8.00617
423,61,15769.5,13544.2,2908.78,7.85888
424,61,13771,13871.5,3262.15,7.08245
425,61,10627,16028.1,3960.77,5.95326
426,61,5759.92,16646.8,3014.38,7.60786
427,61,23728.9,17334.7,4837.52,4.99491
428,61,8476.33,17957.3,2506.67,9.00741
429,61,18336.5,18252.9,2463.73,9.15212
430,61,1245.37,18623.3,6349.64,3.95888
431,61,22340.6,20808.2,1777.3,12.4118
432,61,42484.8,21252.4,2715.56,8.36848
433,61,39851.6,21563.4,5081.22,4.78677
434,61,49308.8,24777.6,3135.65,7.34037
435,61,37413.9,26529.3,4278.74,5.56069
436,61,47487.3,26832.1,3394.44,6.83316
437,61,45533.4,27003.5,3434.48,6.76149
438,61,25008.2,27613,3259.83,7.08701
439,61,29469.7,29074.6,2459.09,9.16807
440,61,20932.8,29469.5,1573.05,13.9295
441,61,32303.8,32016.2,3715.9,6.30101
442,61,3287.82,33470.9,3540.09,6.58016
443,61,35536.5,33707.8,1627.59,13.487
444,61,24809.9,34370.5,3372.4,6.87336
445,61,43824,34585.9,2420.79,9.30195
446,61,23424,34525.7,4236.96,5.60893
447,61,48327.6,34618.5,3199.48,7.20769
448,61,46923.1,34804.3,5357.42,4.57354
449,61,2620.96,35748,2927.35,7.81344
450,61,1667.56,36963.6,1418.12,15.3719
451,61,4902.98,37230.6,2920.96,7.829
452,61,5871.44,40035.9,3020.77,7.59325
453,61,3671.12,41930.5,3459.43,6.71765
454,61,5895.54,44045,2141.69,10.4218
455,61,35642,44817.5,2297.2,9.76438
456,61,3973.06,44977.6,3216.89,7.17242
457,61,27246.7,45232.4,2068.58,10.765
458,61,40447.7,45773,1400.72,15.5539
459,61,28267.7,46796.7,1577.11,13.8955
460,61,5901.85,48311.7,5303.46,4.61348
461,62,6676.74,681.516,4397.69,5.42831
462,62,36698.6,1803.28,3259.83,7.08701
463,62,33340.7,2027.22,3606.23,6.47196
464,62,9688.12,3121.37,3089.81,7.43902
465,62,38067.4,3843.14,3701.98,6.32216
466,62,43900.7,5010.97,3682.25,6.35239
467,62,32313.4,5037.16,3602.17,6.47849
468,62,12329.6,6413.75,2818.84,8.08743
469,62,7734.23,7070.91,8219.2,3.19891
470,62,31498.5,8875.43,3159.44,7.29029
471,62,2089.58,8940.84,2862.36,7.97505
472,62,15367.3,10605.3,2927.93,7.81203
473,62,2211.82,13094.4,2967.96,7.71601
474,62,15773.3,13538.9,2750.37,8.27139
475,62,13761.9,13875.9,3260.41,7.08587
476,62,10631.4,16027.9,3952.64,5.96411
477,62,5763.3,16649.9,3027.73,7.57738
478,62,23736.4,17329.1,4632.11,5.18717
479,62,8486.05,17949.7,2488.68,9.06742
480,62,18344.8,18256.7,2401.64,9.37049
481,62,1246.86,18627.3,6251,4.01137
482,62,22357,20848.5,1757.57,12.543
483,62,42503,21254.4,2796.79,8.14569
484,62,39853.2,21533.4,4811.41,5.01845
485,62,49268.1,24799,2832.19,8.0526
486,62,37460.8,26511.4,4055.35,5.83011
487,62,47478.2,26803.4,3218.05,7.17008
488,62,45533,27020.6,3292.9,7.02273
489,62,25014,27567.6,3078.21,7.46446
490,62,29470.5,29082.8,2239.75,9.99663
491,62,20956.1,29474.2,1846.35,11.9745
492,62,32306.3,32028.7,3804.68,6.16979
493,62,3277.86,33454.8,3429.26,6.77074
494,62,35501.7,33678.3,1633.98,13.4371
495,62,24818.8,34367.8,3131.01,7.35023
496,62,43816.4,34586.5,2110.94,10.5633
497,62,23443.1,34532.6,4225.36,5.6225
498,62,48305,34634,3248.22,7.10987
499,62,46915,34812.8,5234.99,4.66532
500,62,2650.79,35740.3,3090.98,7.43649
501,62,1690.5,36924.6,1480.79,14.7522
502,62,4912.51,37240.3,2716.72,8.3652
503,62,5889.92,40061.3,2919.8,7.83183
504,62,3666.39,41932.4,3216.89,7.17242
505,62,5865.64,44049.9,2236.85,10.0087
506,62,35696,44824.9,2412.67,9.33089
507,62,3984.64,44973.6,3135.65,7.34037
508,62,27227.8,45237.2,2142.85,10.4165
509,62,40465.1,45789.9,1368.22,15.9059
510,62,28298.9,46779.6,1411.74,15.4381
511,62,5904.77,48320.3,5381.79,4.55577
512,63,6658.51,663.688,4066.95,5.81539
513,63,36651.6,1811.86,3145.52,7.31952
514,63,33336.1,2040.78,3544.73,6.57244
515,63,9696.55,3109.54,2865.84,7.96621
516,63,38058.3,3843.14,3735.63,6.27132
517,63,43908.3,5011.19,3686.89,6.34525
518,63,32317.7,5038.14,3753.62,6.24451
519,63,12330.5,6409.8,2709.17,8.38655
520,63,7721.53,7112.66,8213.4,3.20074
521,63,31481.9,8888.88,3152.48,7.30487
522,63,2048.77,8982.35,2811.3,8.10725
523,63,15361.7,10588.2,2793.31,8.15497
524,63,2205.49,13095.6,2706.27,8.39479
525,63,15769.6,13542.1,2820.58,8.08286
526,63,13757.4,13884.5,3325.4,6.96081
527,63,10640.4,16033.5,3918.99,6.00954
528,63,5750.11,16642.8,2788.67,8.16739
529,63,23732.2,17325.6,4812.57,5.01739
530,63,8473.83,17957.2,2302.42,9.74384
531,63,18338.2,18261.3,2281.53,9.82656
532,63,1237.8,18605.9,6361.83,3.95251
533,63,22366.7,20833.4,1798.77,12.2722
534,63,42517.4,21260.1,2866.42,7.96474
535,63,39858.2,21541.5,4876.98,4.95981
536,63,49292.9,24754.8,3066.6,7.49009
537,63,37443.8,26486.7,4391.31,5.43523
538,63,47483.2,26822.3,3072.99,7.47597
539,63,45537.3,27027,3223.85,7.15841
540,63,25010.5,27555.7,3093.3,7.43143
541,63,29477.2,29057.8,2321.57,9.66931
542,63,20928.6,29477.3,1635.72,13.4236
543,63,32316,32024.7,3852.84,6.10113
544,63,3270.93,33463,3331.78,6.94879
545,63,35514.6,33678.6,1608.44,13.6389
546,63,24787.4,34376.5,3312.63,6.98499
547,63,43832.6,34591.4,2287.91,9.80112
548,63,23449.2,34524.3,4446.43,5.3761
549,63,48298.4,34625.5,3327.14,6.95753
550,63,46924.8,34815.6,4990.7,4.86173
551,63,2617.88,35729.9,2930.25,7.80639
552,63,1717.48,36951.6,1469.19,14.8629
553,63,4909.29,37238.7,2763.14,8.2364
554,63,5879.03,40059.3,2867.58,7.9618
555,63,3670.91,41928.5,3256.35,7.09385
556,63,5864.52,44041.3,2152.14,10.3747
557,63,35641.9,44802.6,2354.06,9.5456
558,63,3990.24,44970.4,3328.3,6.95534
559,63,27231,45221.6,2019.26,11.0105
560,63,40457.7,45774.5,1489.49,14.6702
561,63,28288.3,46777.9,1444.81,15.1014
562,63,5893.69,48340.3,5526.85,4.45317
563,64,6681.76,699.59,4118.59,5.75089
564,64,36701.2,1793.84,3263.89,7.07904
565,64,33343.6,2036.77,3368.33,6.88082
566,64,9665,3096,2938.37,7.78673
567,64,38062.5,3838.73,3744.91,6.25745
568,64,43917.8,5006.89,3598.69,6.4841
569,64,32326.2,5034.45,3659.04,6.38838
570,64,12325.8,6422.83,2867,7.96327
571,64,7737.86,7070.68,8190.77,3.20791
572,64,31467.2,8905.85,2914.58,7.84462
573,64,2022.46,8951.93,2776.48,8.20017
574,64,15363.4,10600.3,2759.65,8.24591
575,64,2192.89,13087.2,2661.01,8.52567
576,64,15742,13540.6,2955.2,7.74634
577,64,13759.9,13853.3,3274.91,7.05752
578,64,10659.8,16004.3,3511.65,6.62791
579,64,5762.06,16663,2900.65,7.87894
580,64,23733.6,17334,4425.54,5.39833
581,64,8474.28,17970.9,2287.33,9.80343
582,64,18318.1,18216.7,2002.43,11.097
583,64,1269.92,18606.9,6284.07,3.99359
584,64,22341.5,20846.9,1772.07,12.4462
585,64,42492.8,21277.7,2776.48,8.20017
586,64,39863,21530.9,4858.99,4.97574
587,64,49259.8,24783.5,2850.75,8.00469
588,64,37452,26484.1,4289.77,5.54811
589,64,47494.6,26819.1,3114.77,7.38497
590,64,45541.6,27016.6,3296.96,7.01492
591,64,25017.3,27615.2,3021.35,7.59193
592,64,29476.9,29059.9,2305.32,9.73246
593,64,20925.5,29457.8,1778.46,12.4042
594,64,32310.3,32021.9,3735.05,6.27218
595,64,3314.66,33435.4,3349.19,6.91624
596,64,35505.6,33694.3,1637.46,13.4101
597,64,24811.5,34373.3,3386.32,6.84791
598,64,43818.5,34580.6,2345.36,9.5784
599,64,23452.5,34500.7,4359.4,5.47015
600,64,48319.4,34651,3159.44,7.29029
601,64,46924.5,34829.6,5016.81,4.83983
602,64,2617.14,35722.1,2902.98,7.8732
603,64,1689.53,36933.7,1473.25,14.824
604,64,4903.04,37258.4,2683.64,8.45968
605,64,5850.09,40020.4,2841.47,8.02856
606,64,3664.31,41916.3,3389.8,6.84158
607,64,5895.82,44043.5,2179.99,10.2512
608,64,35671.5,44790.1,2461.99,9.15809
609,64,3959.65,44958.3,3105.48,7.40498
610,64,27234,45262.7,2065.68,10.7791
611,64,40446.7,45796.8,1362.42,15.9705
612,64,28263.5,46782.3,1632.23,13.4507
613,64,5887.79,48317.8,5565.73,4.42657
614,65,6693.08,695.859,4019.37,5.87628
615,65,36675.2,1841.21,3212.25,7.18179
616,65,33332.9,2044.64,3498.89,6.6496
617,65,9664.83,3102.48,2822.32,8.07831
618,65,38061.6,3861.19,3856.9,6.09541
619,65,43900.9,4992.4,3538.35,6.58306
620,65,32297.4,5030.17,3609.72,6.46637
621,65,12339,6411.84,2732.38,8.32125
622,65,7729.83,7102.8,7752.1,3.35505
623,65,31466.2,8896.93,2865.26,7.96768
624,65,2038.8,8969.63,2844.95,8.01959
625,65,15349.1,10553.6,2835.67,8.04357
626,65,2217.43,13086.3,2643.6,8.57719
627,65,15772.8,13539.2,2849.01,8.00915
628,65,13760.3,13869,3041.65,7.54586
629,65,10624,15997.4,3630.02,6.434
630,65,5752.13,16653.1,2944.75,7.77136
631,65,23727.2,17331.6,4723.21,5.09986
632,65,8459.7,17950.8,2460.83,9.16208
633,65,18339.3,18242.8,2048.27,10.8646
634,65,1204.39,18619,5926.06,4.19644
635,65,22361.5,20825.1,1750.6,12.59
636,65,42497.6,21256.1,2638.96,8.59105
637,65,39863.6,21534.3,4691.3,5.13006
638,65,49274.4,24769.7,2777.64,8.19703
639,65,37434.8,26486.9,4459.2,5.36261
640,65,47498.9,26832.1,3104.9,7.40624
641,65,45541.6,27021,3140.3,7.33054
642,65,25003.7,27557.1,3056.74,7.51203
643,65,29460.5,29042.8,2167.8,10.3048
644,65,20964.6,29492.8,1593.36,13.7612
645,65,32287.2,32024.3,3834.85,6.12657
646,65,3272.85,33415.1,3433.9,6.76251
647,65,35518.2,33703.6,1721.59,12.7901
648,65,24806.3,34363.9,3331.78,6.94879
649,65,43812.5,34561.1,2292.56,9.78271
650,65,23455.9,34511.7,4176.04,5.681
651,65,48315.9,34639.4,3180.91,7.24574
652,65,46932.6,34816.4,4974.46,4.87547
653,65,2618.46,35727,2756.75,8.25386
654,65,1679.08,36908.6,1493.56,14.6323
655,65,4900.32,37262.1,2847.85,8.01213
656,65,5853.04,40031.3,2767.78,8.22376
657,65,3644.36,41946,3378.2,6.86273
658,65,5864.23,44046.2,2218.86,10.0841
659,65,35645.7,44790.8,2381.91,9.44225
660,65,3982.58,44959.7,3172.79,7.26253
661,65,27237.5,45267.2,1957.17,11.3371
662,65,40459.5,45787.3,1342.69,16.1945
663,65,28270.5,46782.5,1474.41,14.8129
664,65,5877.82,48338.8,5266.32,4.64143
665,81,6681.18,690.094,4056.51,5.82864
666,81,36680.8,1812,3413.59,6.79868
667,81,33331.9,2038.08,3565.04,6.53888
668,81,9664.79,3092.53,2908.2,7.86031
669,81,38064.9,3858.05,3870.83,6.07591
670,81,43898.5,4998.51,3489.6,6.66548
671,81,32307.5,5030.3,3840.07,6.11916
672,81,12341,6408.12,2925.6,7.81768
673,81,7738.66,7081.95,8555.74,3.09675
674,81,31475.5,8907.98,3071.83,7.47854
675,81,2054.66,8929.61,2743.99,8.28901
676,81,15336.2,10568.8,2949.4,7.76022
677,81,2206.58,13104.9,3056.16,7.51333
678,81,15773.8,13537.8,3041.65,7.54586
679,81,13764.3,13850.6,3431,6.76765
680,81,10627.2,16046.8,3787.85,6.1942
681,81,5773.78,16638.6,2794.47,8.15188
682,81,23702.3,17322.5,4624.57,5.19455
683,81,8472.14,17955.4,2436.46,9.24667
684,81,18344.4,18243.6,2350.58,9.55869
685,81,1189.33,18612.8,6291.62,3.98956
686,81,22343.1,20839.8,1749.44,12.5979
687,81,42494.1,21253.2,2782.28,8.18452
688,81,39850.3,21546.1,5039.44,4.82104
689,81,49274.6,24762,3070.67,7.4811
690,81,37449.6,26509,4596.72,5.22201
691,81,47487.6,26837.6,3118.25,7.37749
692,81,45543.8,27016.5,3360.79,6.89473
693,81,24996.5,27577.1,3245.32,7.11561
694,81,29439,29089.9,2431.23,9.26502
695,81,20952.8,29481.4,1698.38,12.955
696,81,32293.8,32024.1,4035.62,5.85533
697,81,3290.23,33431.9,3353.83,6.90762
698,81,35551.6,33703.7,1563.77,14.0079
699,81,24811.9,34363.9,3426.36,6.7759
700,81,43835.9,34610.1,2376.69,9.46144
701,81,23459.6,34529.6,4515.48,5.30404
702,81,48299.1,34626.2,2941.27,7.77973
703,81,46922.4,34799.3,5143.31,4.73687
704,81,2649.13,35725.9,2869.9,7.95592
705,81,1681.58,36903.3,1373.44,15.8482
706,81,4914.18,37222.4,2791.57,8.15962
707,81,5886.66,40050.8,2929.67,7.8078
708,81,3687.76,41943.6,3206.44,7.19354
709,81,5850.55,44042.9,2251.36,9.94876
710,81,35644.7,44782.7,2438.78,9.23854
711,81,3986.4,44967.4,3174.53,7.25893
712,81,27224.5,45245.7,1972.26,11.2558
713,81,40468,45791.6,1347.33,16.1412
714,81,28290.9,46791.9,1549.26,14.1323
715,81,5891.94,48326.9,5697.44,4.33911
716,82,6688.37,692.402,4164.43,5.69497
717,82,36693,1800.13,3119.41,7.37501
718,82,33341.1,2029.25,3509.91,6.63086
719,82,9671.65,3113.33,3010.32,7.61719
720,82,38063.8,3816.26,3905.06,6.02857
721,82,43902.1,5006.4,3732.73,6.27566
722,82,32313.1,5039.37,3621.9,6.44691
723,82,12326.4,6419.53,3022.51,7.58928
724,82,7726.41,7102.68,8578.95,3.09
725,82,31466.2,8905.85,3108.38,7.39871
726,82,2025.66,8927.11,2826.38,8.0677
727,82,15344.6,10557.2,2894.27,7.89479
728,82,2205.53,13088.5,2848.43,8.01064
729,82,15775,13539.7,2963.32,7.72701
730,82,13756.2,13866.4,3227.91,7.15027
731,82,10639.2,16011.8,3868.51,6.07915
732,82,5750.14,16649.7,2946.49,7.76718
733,82,23734.8,17326.6,4637.91,5.1815
734,82,8478.46,17958.8,2571.07,8.79937
735,82,18336.8,18229.7,2385.98,9.42738
736,82,1266.96,18618.7,6620.62,3.82263
737,82,22351.7,20812.1,1758.73,12.5352
738,82,42501.4,21272.4,2813.62,8.10114
739,82,39856.6,21539.8,4970.98,4.87843
740,82,49297.4,24750.5,3035.27,7.56027
741,82,37431.5,26524.4,4450.49,5.3718
742,82,47490.4,26824.3,3409.53,6.80596
743,82,45548.9,27022.1,3420.56,6.78623
744,82,25016,27572,3261.57,7.08359
745,82,29488.7,29080.4,2358.7,9.52821
746,82,20929.7,29476.3,1594.52,13.7517
747,82,32304.6,32013.7,3979.91,5.92786
748,82,3273.44,33449.2,3552.27,6.55993
749,82,35526.5,33706.4,1669.37,13.1676
750,82,24777.4,34367.1,3350.35,6.91408
751,82,43830.6,34563.4,2238.59,10.0014
752,82,23422.9,34528.6,4337.35,5.49457
753,82,48314,34642.5,3222.69,7.16074
754,82,46921.3,34845.7,5277.93,4.63265
755,82,2651.99,35738.1,2860.62,7.97948
756,82,1680.35,36916.1,1449.46,15.0553
757,82,4898.74,37226.6,2914,7.84604
758,82,5888.04,40029.4,2844.37,8.02108
759,82,3649.19,41910.7,3266.79,7.07337
760,82,5858.44,44007.4,2404.54,9.36003
761,82,35654.5,44803.6,2514.21,8.98249
762,82,3978.51,44975.2,3193.1,7.22072
763,82,27215.5,45234.2,2019.84,11.0075
764,82,40469.4,45783.8,1453.52,15.0153
765,82,28277.9,46804.9,1599.74,13.7092
766,82,5897.02,48338.6,5640.58,4.37638
767,83,6696.09,691.98,4203.89,5.6478
768,83,36686,1830.02,3184.98,7.23738
769,83,33341.3,2045.87,3436.22,6.75841
770,83,9663.32,3114.52,2857.72,7.98688
771,83,38062.7,3837.92,3739.11,6.26611
772,83,43901,5002,3578.96,6.51609
773,83,32295,5020.9,3465.81,6.70654
774,83,12340.8,6412.34,2975.51,7.69821
775,83,7734.52,7077.39,8526.73,3.10525
776,83,31483.4,8886.67,3244.74,7.11676
777,83,2029.65,8947.1,2839.15,8.03456
778,83,15328.4,10536.7,2745.15,8.2858
779,83,2217.51,13080.6,2934.89,7.79514
780,83,15769,13533.3,2874.54,7.9442
781,83,13761.2,13869.7,3373.56,6.87123
782,83,10633.1,16038.4,3914.35,6.01587
783,83,5757.63,16671,2779.38,8.19234
784,83,23736.8,17338.7,4509.68,5.31001
785,83,8466.43,17956.7,2591.38,8.73591
786,83,18331.8,18229.7,2231.63,10.0304
787,83,1238.77,18614.3,6479.62,3.89212
788,83,22332.6,20836,1719.85,12.8023
789,83,42498.7,21248.7,2654.05,8.5462
790,83,39857.9,21542.9,4885.1,4.95266
791,83,49292,24785.3,2941.27,7.77973
792,83,37440.4,26540.2,4401.75,5.42392
793,83,47497.1,26824.3,3262.73,7.08132
794,83,45541.3,27024.9,3507.59,6.6348
795,83,25001.8,27588.4,3265.05,7.07677
796,83,29470.7,29058.2,2256,9.92974
797,83,20928.3,29462.6,1666.47,13.1892
798,83,32292.8,32023.9,3809.32,6.1631
799,83,3283.77,33458.7,3313.21,6.98389
800,83,35545.2,33680.7,1579.43,13.8762
801,83,24804,34356.5,3222.11,7.16191
802,83,43794.2,34568,2333.75,9.62252
803,83,23466.8,34503.2,4352.43,5.47783
804,83,48309.2,34635.6,3349.77,6.91516
805,83,46925.9,34807.6,4971.56,4.87793
806,83,2621.7,35731.6,2893.11,7.89767
807,83,1679.06,36918,1524.31,14.3517
808,83,4914.21,37233.6,2703.95,8.40139
809,83,5850.91,40044.1,2753.27,8.26341
810,83,3662.91,41927.3,3063.7,7.49653
811,83,5866.31,44018.2,2254.84,9.93449
812,83,35673.6,44832.5,2428.91,9.2732
813,83,3969.38,44957.9,3131.01,7.35023
814,83,27236.4,45261.2,1974,11.2465
815,83,40450,45797.3,1295.11,16.7626
816,83,28294,46801.4,1565.51,13.9931
817,83,5871.06,48328.3,5465.35,4.49601
818,84,6705.51,682.711,4311.81,5.52315
819,84,36692.8,1828.59,3135.07,7.3416
820,84,33341,2031.75,3455.37,6.72475
821,84,9660.86,3091.19,2854.23,7.99577
822,84,38065.6,3842.52,3643.37,6.41293
823,84,43911.9,4998.56,3416.49,6.79348
824,84,32299.2,5026.82,3682.83,6.3515
825,84,12342.3,6418.27,2964.48,7.72426
826,84,7746.12,7075.64,8405.46,3.14138
827,84,31482.4,8890.24,3239.52,7.12712
828,84,2007.41,8960.83,2727.16,8.33584
829,84,15341.8,10562.7,2790.41,8.16273
830,84,2207.88,13088.7,3024.25,7.58531
831,84,15759.7,13534.1,2908.78,7.85888
832,84,13764.8,13867.3,3405.47,6.81326
833,84,10594.9,15998.4,3963.09,5.95017
834,84,5742.55,16642.4,3107.8,7.39997
835,84,23716.8,17325.1,4882.2,4.95521
836,84,8478.9,17960.5,2434.72,9.25278
837,84,18331.1,18219.8,2274.57,9.85447
838,84,1241.02,18603.6,6352.54,3.95736
839,84,22360.4,20839,1747.12,12.6137
840,84,42509.9,21264.5,2797.37,8.14414
841,84,39860.8,21566.7,5015.65,4.8408
842,84,49282.4,24774.3,3182.65,7.24216
843,84,37474.8,26504.9,4480.09,5.3407
844,84,47494.2,26831.2,3178.59,7.25053
845,84,45554.1,27033.7,3397.93,6.82686
846,84,25023.2,27570.1,3196,7.21479
847,84,29482.2,29071.9,2260.06,9.91317
848,84,20951.2,29497.1,1678.07,13.103
849,84,32299,32019.6,4046.06,5.84195
850,84,3312.36,33410,3412.43,6.80075
851,84,35559.7,33708.4,1643.84,13.3609
852,84,24818.2,34368.9,3222.11,7.16191
853,84,43843.6,34593,2372.05,9.47858
854,84,23461.5,34518.8,4460.36,5.36139
855,84,48313.5,34632.6,3497.15,6.65257
856,84,46931.3,34811.9,4937.9,4.90671
857,84,2615.87,35720.4,2977.25,7.69411
858,84,1688.81,36952.2,1505.74,14.5197
859,84,4898.11,37239.6,2855.98,7.99132
860,84,5874.93,40043.7,2821.16,8.08134
861,84,3640.78,41940.5,3326.56,6.95862
862,84,5875.02,44057.3,2176.51,10.2665
863,84,35654.7,44757.9,2520.59,8.96153
864,84,3969,44940.1,3006.84,7.62521
865,84,27235.7,45224.6,1905.53,11.6249
866,84,40471.4,45782.9,1377.51,15.8036
867,84,28265.5,46797.4,1699.54,12.9466
868,84,5878.02,48313.7,5666.11,4.35955
869,85,6714.63,688.492,4233.48,5.61299
870,85,36684.6,1811.17,3300.44,7.00825
871,85,33340.1,2045.13,3425.78,6.77693
872,85,9704.66,3107.47,2822.32,8.07831
873,85,38072.1,3813.43,3614.94,6.45801
874,85,43884.5,5009.82,3580.12,6.51419
875,85,32305.8,5025.35,3887.65,6.05254
876,85,12348.7,6419.87,3068.93,7.48495
877,85,7738.76,7082.32,8201.79,3.20441
878,85,31455.7,8909.54,3192.52,7.22191
879,85,2021.23,8965.59,2850.75,8.00469
880,85,15346.8,10598.4,2826.96,8.06619
881,85,2207.66,13102.1,2779.96,8.19077
882,85,15771,13535.8,2905.88,7.86603
883,85,13766.1,13859.7,3337.58,6.93791
884,85,10623.5,16023.3,3932.91,5.99065
885,85,5762.59,16636.8,2992.91,7.65747
886,85,23739.6,17336.8,4633.27,5.18603
887,85,8487.39,17958.7,2556.57,8.84532
888,85,18341.7,18215.7,2208.42,10.1284
889,85,1211.49,18605.3,6316.57,3.9763
890,85,22331.3,20858.2,1829.52,12.078
891,85,42504.9,21260.6,2654.05,8.5462
892,85,39857.2,21531.6,4924.56,4.91823
893,85,49269.7,24767.8,3066.6,7.49009
894,85,37442,26474.6,4676.21,5.14448
895,85,47491.9,26837.7,3328.88,6.95425
896,85,45555.2,27032.7,3370.07,6.87762
897,85,25032.8,27590.6,3149.58,7.31097
898,85,29470.6,29056.1,2367.99,9.49362
899,85,20954.3,29453.5,1700.12,12.9425
900,85,32309.4,32026.1,3965.41,5.94708
901,85,3277.74,33465.5,3139.72,7.33177
902,85,35536.8,33695.8,1561.44,14.0277
903,85,24770.2,34382.1,3300.44,7.00825
904,85,43802,34569.2,2217.12,10.0914
905,85,23461,34508.5,4431.93,5.39152
906,85,48299.7,34639.2,3349.19,6.91624
907,85,46928.9,34811.6,5098.63,4.77266
908,85,2611.11,35740.7,2897.17,7.88758
909,85,1681.18,36954.4,1468.02,14.8741
910,85,4916.08,37227.9,2721.94,8.35049
911,85,5884.86,40048.5,2897.75,7.88614
912,85,3643.06,41916,3222.11,7.16191
913,85,5881.29,44019.4,2132.99,10.4614
914,85,35634.1,44795.3,2442.84,9.22435
915,85,3970.72,44956.7,3106.06,7.40373
916,85,27229.7,45218.7,1964.72,11.2963
917,85,40456.5,45802.4,1364.16,15.9511
918,85,28287.6,46804.1,1700.7,12.9383
919,85,5880.68,48327.1,5657.99,4.36489
920,86,6665.21,674.961,4216.65,5.63273
921,86,36678.1,1836.19,3227.91,7.15027
922,86,33342.9,2031.73,3424.62,6.77899
923,86,9672.11,3115.11,2806.07,8.12105
924,86,38066.6,3835.37,3807,6.16645
925,86,43890,4986.06,3435.64,6.75943
926,86,32308.9,5032.55,3507.01,6.63578
927,86,12357.6,6414.12,3029.47,7.57343
928,86,7731.14,7111.23,8028.3,3.26057
929,86,31457.9,8897.35,3071.83,7.47854
930,86,2031.27,8970.45,2740.51,8.29865
931,86,15362.9,10614.6,2783.44,8.1814
932,86,2201.4,13103.8,2842.63,8.02557
933,86,15770.3,13543.4,2720.2,8.35539
934,86,13781.2,13851.2,3096.2,7.42511
935,86,10617.9,16016.8,3811.06,6.16059
936,86,5755.98,16671.2,2817.68,8.09047
937,86,23719.6,17332.1,4831.14,5.00064
938,86,8474.89,17942.1,2450.96,9.19612
939,86,18339.3,18247,2202.04,10.1557
940,86,1215.45,18606.6,6355.44,3.95584
941,86,22359.5,20838.1,1781.94,12.3813
942,86,42495.3,21262.6,2581.52,8.76661
943,86,39841.3,21538.2,4979.68,4.87105
944,86,49273.4,24768.8,2990.01,7.66422
945,86,37401.5,26541.3,4434.83,5.38843
946,86,47490.3,26809.5,3046.3,7.53542
947,86,45543.6,27011.5,3239.52,7.12712
948,86,25011.1,27596.9,3084.59,7.45045
949,86,29477.7,29062,2474.75,9.11449
950,86,20948.9,29455.5,1796.44,12.2872
951,86,32296.9,32014.6,3780.89,6.20436
952,86,3270.82,33459.7,3377.62,6.86379
953,86,35519.2,33683,1614.83,13.5879
954,86,24773.5,34352.8,3362.53,6.89151
955,86,43816.8,34578.4,2358.7,9.52821
956,86,23460.2,34524.4,4496.91,5.3232
957,86,48303.9,34635.8,3298.7,7.01158
958,86,46924.4,34804.9,5183.35,4.70531
959,86,2618.33,35699.4,2860.62,7.97948
960,86,1675.15,36934.8,1408.84,15.4684
961,86,4903.11,37243.4,2933.15,7.79936
962,86,5847.43,40013.2,2790.99,8.16117
963,86,3668.9,41922.6,3244.74,7.11676
964,86,5878.59,44032.3,2295.46,9.77124
965,86,35626.8,44774.2,2477.07,9.10661
966,86,3972.9,44956.9,3150.74,7.30853
967,86,27254.3,45242.1,1935.7,11.4549
968,86,40460.2,45788.1,1363,15.9641
969,86,28285.5,46813.9,1566.67,13.9833
970,86,5871.08,48332.6,5396.3,4.54526
