"id","frame","x [nm]","y [nm]","intensity [photon]","uncertainty_xy [nm]"
1,2,46351.9,594.816,3702.56,6.32127
2,2,22410.4,810.766,6162.8,4.0597
3,2,6757.74,1107.41,5094.57,4.77594
4,2,36700.9,2223.43,3217.47,7.17125
5,2,33312.9,2474.38,3785.53,6.19758
6,2,9731.27,3526.71,2885.57,7.9165
7,2,38057.6,4224.89,4500.4,5.3196
8,2,43889.1,5444.31,3623.64,6.44414
9,2,32352.6,5480.48,4046.06,5.84195
10,2,12345.8,6878.81,3256.93,7.09271
11,2,7716.45,7533.62,11010.2,2.53655
12,2,31455.2,9285.35,3972.37,5.93784
13,2,2135.59,9359.05,3709.52,6.31068
14,2,15373.1,10964.6,2681.32,8.46639
15,2,2195,13574.9,3448.99,6.73593
16,2,15843.2,14005.1,2482.3,9.08893
17,2,13746.2,14310.7,3864.44,6.08483
18,2,10617.5,16401.3,5561.09,4.42973
19,2,5793.22,17117.7,2918.64,7.83467
20,2,23671.4,17781.3,4177.2,5.67961
21,2,8508.52,18417.4,2120.22,10.5201
22,2,18386.2,18627.4,1831.26,12.0672
23,2,1255.94,18990.6,7137.62,3.59092
24,2,22431.4,21232.2,1833.58,12.0529
25,2,42475.4,21638.6,2705.69,8.39644
26,2,39898.9,22007.1,5724.14,4.32188
27,2,49291,25195.7,2949.4,7.76022
28,2,37499.9,26912.1,4890.9,4.94756
29,2,47440,27193,3614.94,6.45801
30,2,45491.9,27419.2,3628.28,6.43676
31,2,25008.6,27970,2999.88,7.6413
32,2,29531,29484.2,2571.65,8.79755
33,2,21032.5,29866.4,1401.3,15.5477
34,2,32362.8,32490.1,4916.43,4.92528
35,2,3361.34,33849.8,3366.59,6.88403
36,2,35494.3,34070.3,2258.9,9.9179
37,2,24786,34759.7,3234.3,7.13752
38,2,43827.7,34983.6,2450.96,9.19612
39,2,23495.2,34921.9,5197.27,4.69445
40,2,48341.7,35039.5,3297.54,7.01381
41,2,46923.2,35286.5,4792.84,5.03534
42,2,2641.17,36119.7,3567.94,6.53412
43,2,1750,37290.6,1570.15,13.9539
44,2,4993.09,37620.8,3259.25,7.08814
45,2,5872.49,40406.5,4036.78,5.85384
46,2,3740.06,42353.8,3848.78,6.10685
47,2,49607.2,42372.5,2990.59,7.66287
48,2,5863.07,44435.8,3306.25,6.99715
49,2,35681.5,45168.3,3378.2,6.86273
50,2,4088.31,45421.5,4040.26,5.84937
51,2,27274.8,45655.5,2056.4,10.8245
52,2,40460.5,46167.1,2029.7,10.9575
53,2,28284,47256.5,3422.88,6.78209
54,2,5959.48,48732.8,7839.72,3.32437
55,21,22395.1,841.637,6182.53,4.04877
56,21,6773.16,1128.18,5497.84,4.47326
57,21,36691.2,2245.67,3231.98,7.14215
58,21,33285.2,2451.54,3682.83,6.3515
59,21,9692.29,3497.72,2810.14,8.11032
60,21,38027,4244.41,4583.37,5.23529
61,21,43912,5433.22,3560.4,6.54651
62,21,32341.5,5440.59,4035.62,5.85533
63,21,12340.2,6864.82,3035.27,7.56027
64,21,7725.77,7529.07,11068.2,2.52624
65,21,31440.6,9314.35,4106.99,5.76525
66,21,2125.02,9378.82,3658.46,6.38928
67,21,15420.1,10990.5,2476.49,9.10857
68,21,2181.65,13548.1,3075.89,7.46957
69,21,15834.5,13995.2,2705.11,8.39809
70,21,13774.7,14306.6,3792.49,6.18744
71,21,10611.6,16404.2,5638.84,4.37753
72,21,5726.03,17147.9,2945.33,7.76996
73,21,23744.4,17758.5,4210.27,5.64025
74,21,8491.64,18406.4,2141.11,10.4244
75,21,18386.5,18636.1,1785.42,12.3586
76,21,1262.88,19008.2,7378.42,3.4939
77,21,22394.7,21241.9,1727.4,12.7495
78,21,42451.3,21650,2685.38,8.45465
79,21,39901.3,22017.8,5593,4.40813
80,21,49279.9,25193.2,2915.16,7.8432
81,21,37488.5,26895.9,4679.11,5.1417
82,21,47446.5,27188.6,3720.54,6.29399
83,21,45482.4,27411.4,3348.02,6.9184
84,21,25019.9,28034.5,3006.84,7.62521
85,21,29527.5,29522.1,2699.89,8.41298
86,21,21025.7,29874.8,1476.15,14.7963
87,21,32352.6,32490.7,4882.2,4.95521
88,21,3390.96,33816,3205.86,7.19471
89,21,35509.5,34105.6,2272.83,9.86148
90,21,24797.1,34740.3,3353.83,6.90762
91,21,43839.2,34975.1,2484.62,9.0811
92,21,23494.4,34909.4,5179.28,4.70849
93,21,48329.9,35062.6,2886.73,7.9136
94,21,46894.7,35255.7,4258.43,5.58402
95,21,2629.79,36109.1,3471.04,6.69748
96,21,1731.98,37318.7,1703.6,12.9175
97,21,4992.91,37646.8,3312.05,6.9861
98,21,5899.43,40427.8,3928.85,5.99615
99,21,3765.37,42336.5,3801.78,6.17399
100,21,49606.8,42361.5,2773,8.20959
101,21,5863.3,44439.6,3598.11,6.48503
102,21,35678.5,45173.4,3247.06,7.11216
103,21,4063.31,45390.2,3909.12,6.023
104,21,27270.9,45621.6,2098.75,10.6205
105,21,40476,46187.3,1795.28,12.2946
106,21,28267.5,47261.7,3547.63,6.56762
107,21,5955.51,48750.3,8126.94,3.22836
108,22,22416.2,824.434,6292.2,3.98925
109,22,6760.87,1124.36,5434.59,4.51779
110,22,36696.7,2250.83,3270.85,7.06544
111,22,33303.1,2443.38,3577.8,6.51798
112,22,9701.72,3496.04,2814.78,8.09809
113,22,38039.7,4249.5,4357.65,5.47207
114,22,43865.4,5436.47,3672.38,6.36763
115,22,32348,5450.25,4371.58,5.45676
116,22,12350.1,6906.45,3142.04,7.32686
117,22,7719.44,7513.68,10666.1,2.59997
118,22,31454.9,9314.8,4391.31,5.43523
119,22,2115.33,9379.86,3856.32,6.09623
120,22,15419.6,10973.9,2526.98,8.94067
121,22,2169.52,13550.6,3356.73,6.90224
122,22,15834.8,14003,2649.99,8.55822
123,22,13776.1,14275.5,3948,5.97033
124,22,10624.9,16403.9,5600.54,4.40306
125,22,5762.47,17082.4,2817.1,8.09199
126,22,23716.5,17762.7,4140.06,5.72455
127,22,8482.19,18418.2,2049.43,10.8589
128,22,18395.3,18598.2,1903.21,11.6382
129,22,1242.2,18998.2,7468.94,3.45901
130,22,22410,21229.1,1729.14,12.7374
131,22,42467.6,21685.9,2672.62,8.49169
132,22,39915.4,22002.7,5527.43,4.45277
133,22,49327.9,25188.7,2803.75,8.12719
134,22,37504,26900.2,4570.02,5.24865
135,22,47439.3,27198.8,3510.49,6.62988
136,22,45498.9,27430.4,3354.99,6.90547
137,22,25040.6,27970.1,2938.95,7.78533
138,22,29554.3,29546,2623.3,8.63817
139,22,21000.4,29897.4,1358.36,16.0161
140,22,32353.8,32467.8,4889.74,4.94858
141,22,3387.73,33843.2,3374.14,6.87017
142,22,35520.1,34046.5,2193.33,10.1932
143,22,24809,34734.3,3337.58,6.93791
144,22,43877.6,34997.5,2513.63,8.9844
145,22,23505.4,34919.1,5150.85,4.73089
146,22,48352.2,35057.2,3024.25,7.58531
147,22,46888.9,35278.5,4200.99,5.65124
148,22,2637.01,36098.8,3606.23,6.47196
149,22,1728.92,37316.6,1547.52,14.1474
150,22,4974.5,37638.1,3199.48,7.20769
151,22,5864.62,40434.5,3949.16,5.96878
152,22,3753.44,42351.6,4040.26,5.84937
153,22,49588.9,42399.6,2831.6,8.05411
154,22,5852.22,44406.5,3359.63,6.89687
155,22,35674.9,45160.5,3193.68,7.21954
156,22,4086.94,45414.3,4136.58,5.7288
157,22,27268.1,45666.1,2196.23,10.1806
158,22,40482.7,46180.4,1801.09,12.2573
159,22,28269.2,47219.5,3522.68,6.6093
160,22,5956.89,48740.9,8307.4,3.17135
161,23,46366.2,599.273,3629.44,6.43492
162,23,22410.5,846.602,6295.1,3.9877
163,23,6771.26,1108.42,5351.62,4.5778
164,23,36691.9,2258.34,3382.84,6.85426
165,23,33296.7,2458.65,3654.4,6.39563
166,23,9736.35,3502.51,2818.26,8.08895
167,23,38054.2,4228.43,4470.22,5.35102
168,23,43893.5,5436.08,3737.37,6.26871
169,23,32360.9,5467.82,4276.42,5.56334
170,23,12344.3,6888.97,3131.59,7.349
171,23,7709.64,7530.1,11152.9,2.51136
172,23,31482.4,9306.47,4098.28,5.77606
173,23,2128.86,9364.98,3583.02,6.50947
174,23,15410.1,10975.1,2612.85,8.6699
175,23,2169.75,13548.9,3227.91,7.15027
176,23,15825.8,13995.8,2441.1,9.23043
177,23,13757.8,14303.4,3963.09,5.95017
178,23,10638,16407.9,5454.32,4.50379
179,23,5754.16,17138.4,2941.27,7.77973
180,23,23746.4,17735.9,4194.6,5.65882
181,23,8492,18392.9,2110.94,10.5633
182,23,18374.7,18625.7,1860.85,11.8868
183,23,1278.82,18995.9,7602.98,3.40886
184,23,22385.2,21241.9,1740.16,12.6613
185,23,42496.1,21633.5,2695.25,8.42626
186,23,39903.4,22027.7,5613.31,4.39451
187,23,49313.2,25215.3,2868.16,7.96033
188,23,37499,26907.8,4929.78,4.91372
189,23,47433.4,27202,3654.4,6.39563
190,23,45513.3,27413.2,3471.62,6.69647
191,23,25019,28010.3,2981.89,7.68321
192,23,29521.2,29531,2622.72,8.63993
193,23,21000.8,29876.5,1390.85,15.659
194,23,32360.9,32485,4935.58,4.90871
195,23,3379.96,33851.8,3339.9,6.93356
196,23,35492.3,34100.7,2285.59,9.81036
197,23,24816.5,34726.6,3252.28,7.10185
198,23,43874.2,35003.3,2549.6,8.86755
199,23,23495.8,34916.8,5351.62,4.5778
200,23,48344.4,35063.1,3207.6,7.19118
201,23,46891.4,35259.1,4382.02,5.44534
202,23,2640.14,36121.4,3622.48,6.44598
203,23,1706.39,37313.3,1709.99,12.872
204,23,4958.9,37653.9,2890.21,7.9049
205,23,5866.8,40416.1,3935.23,5.98751
206,23,3741.29,42323.3,3910.86,6.02062
207,23,49619.7,42371.6,2775.9,8.20174
208,23,5824.09,44394.1,3296.38,7.01603
209,23,35677.7,45158.6,3335.26,6.94226
210,23,4085.18,45401.9,3932.33,5.99143
211,23,27293.5,45653.3,2006.49,11.076
212,23,40453.5,46192.1,1906.11,11.6216
213,23,28264.1,47227.5,3670.64,6.37033
214,23,5943.31,48730.1,8165.23,3.21605
215,41,22419.3,820.891,6013.68,4.14459
216,41,6765.25,1100.15,5317.96,4.60266
217,41,36668.8,2237.55,3381.1,6.85743
218,41,33310.9,2420.54,3863.28,6.08646
219,41,9694.92,3531.56,2934.89,7.79514
220,41,38050.3,4226.91,4395.95,5.4302
221,41,43873.1,5435.97,3594.05,6.49159
222,41,32341.5,5483.84,4185.9,5.66919
223,41,12353.7,6865.16,3119.41,7.37501
224,41,7697.82,7516.01,11180.2,2.50662
225,41,31456.1,9310.9,4264.81,5.57667
226,41,2130.34,9400.38,3634.67,6.42665
227,41,15398.8,10957.6,2500.86,9.02667
228,41,2199.07,13502.6,3299.28,7.01047
229,41,15826.2,13991.3,2576.88,8.78114
230,41,13762.5,14276.6,3916.67,6.0127
231,41,10603.6,16432.3,5659.15,4.36413
232,41,5803.82,17121.8,3063.12,7.49782
233,41,23705.4,17769.6,4175.46,5.6817
234,41,8488.02,18375.5,2019.26,11.0105
235,41,18380.8,18602.4,1856.79,11.9112
236,41,1280.01,19009.4,7450.95,3.46588
237,41,22424.5,21224.6,1755.25,12.5586
238,41,42488.9,21643.9,2752.69,8.26501
239,41,39913.3,22025.7,5883.12,4.2224
240,41,49315.7,25218,2856.56,7.98984
241,41,37482.2,26898.1,4876.4,4.96033
242,41,47436.2,27202.6,3476.84,6.68744
243,41,45471.1,27405.2,3349.19,6.91624
244,41,25032.6,27981.5,3157.7,7.29393
245,41,29530.5,29502.7,2527.56,8.93878
246,41,21012.7,29912.6,1309.04,16.592
247,41,32368.8,32495.3,5246.59,4.65644
248,41,3385.44,33800.5,3320.75,6.96958
249,41,35465.8,34090.1,2079.02,10.7145
250,41,24788.7,34728.3,3102.58,7.41126
251,41,43848.7,34969.4,2538.58,8.90301
252,41,23506.6,34910.7,5035.96,4.82392
253,41,48321.2,35055.7,3049.78,7.5276
254,41,46944.1,35268.2,4341.41,5.49005
255,41,2618.46,36086,3633.51,6.42849
256,41,1755.34,37300.7,1643.84,13.3609
257,41,4991.27,37604.2,3305.09,6.99937
258,41,5849.05,40408.6,3997.32,5.90498
259,41,3753.1,42352.3,3685.73,6.34703
260,41,49602,42338,3007.42,7.62387
261,41,5866.09,44462.3,3436.22,6.75841
262,41,35677.9,45163.3,3346.86,6.92056
263,41,4083.39,45428.9,4054.19,5.83159
264,41,27265.5,45659.9,2146.33,10.4008
265,41,40446.3,46163.2,1933.96,11.4645
266,41,28264.8,47198.7,3520.36,6.61321
267,41,5963.79,48734.8,7784.59,3.3436
268,42,22422.2,818.977,5929.54,4.19435
269,42,6757.39,1107.88,5412.54,4.53356
270,42,36699,2227.73,3290,7.02831
271,42,33331.6,2473.51,3752.46,6.24623
272,42,9725.61,3479.02,2906.46,7.8646
273,42,38057.3,4229.85,4370.42,5.45803
274,42,43910.3,5416.99,3700.81,6.32393
275,42,32340.8,5492.13,4062.31,5.82127
276,42,12347.5,6862.44,3232.56,7.14099
277,42,7707.51,7527.93,11667,2.42556
278,42,31462.4,9311.41,3970.63,5.94015
279,42,2099.34,9374.5,3648.59,6.40472
280,42,15427.6,10972.4,2626.78,8.62765
281,42,2197.36,13532.1,3197.16,7.21242
282,42,15851.2,13996.2,2521.17,8.95963
283,42,13749.8,14293.3,4225.94,5.62182
284,42,10596.3,16422.3,5557.02,4.43249
285,42,5787.04,17127.6,2953.46,7.7505
286,42,23734.9,17746.4,4006.02,5.89361
287,42,8510.79,18405.4,2021.58,10.9986
288,42,18402.5,18626.8,1921.2,11.5359
289,42,1256.24,18988.3,7337.8,3.50982
290,42,22407.6,21247.4,1669.95,13.1632
291,42,42470.3,21655.3,2867.58,7.9618
292,42,39870,21970.9,5909.23,4.20657
293,42,49344.5,25210.6,2873.38,7.94712
294,42,37505.9,26905.6,4731.33,5.09223
295,42,47444.8,27206.4,3790.75,6.18997
296,42,45476.9,27402.4,3443.19,6.74612
297,42,25031.3,27987.6,3050.94,7.525
298,42,29575,29561.3,2602.99,8.70009
299,42,20993.1,29877.3,1336.31,16.2683
300,42,32366.4,32472.2,4965.75,4.88287
301,42,3366.72,33815.7,3252.86,7.1007
302,42,35468.8,34034.6,2194.49,10.1882
303,42,24804.9,34721,2997.56,7.64668
304,42,43859.8,34962.5,2480.56,9.09481
305,42,23501.3,34892.6,5058.59,4.80526
306,42,48329.8,35030.7,3045.14,7.53802
307,42,46897.2,35253,4366.94,5.46185
308,42,2692.65,36080.7,3703.14,6.32039
309,42,1773.72,37364.1,1609.6,13.6296
310,42,4976.44,37642.2,3280.72,7.04626
311,42,5892.25,40398.4,3876.63,6.06783
312,42,3748.28,42327.4,3751.88,6.24709
313,42,49626,42357.4,2963.32,7.72701
314,42,5847.05,44404,3288.26,7.03167
315,42,35673.1,45168.7,3309.73,6.99051
316,42,4058.46,45422.5,4132.52,5.73377
317,42,27261.6,45643.3,2034.93,10.9312
318,42,40444.3,46157.3,1798.77,12.2722
319,42,28280.7,47222.4,3241.84,7.12251
320,42,5955.89,48726.6,8060.79,3.24988
321,43,22416.8,822.23,6275.95,3.99794
322,43,6771.82,1120.65,5346.4,4.58164
323,43,36684.2,2225.98,3369.49,6.87869
324,43,33287.2,2458.16,3703.14,6.32039
325,43,9688.61,3492.1,2880.35,7.92959
326,43,38058.6,4224.9,4564.22,5.25448
327,43,43885.3,5420.09,3886.49,6.05414
328,43,32351,5496.08,4024.59,5.86952
329,43,12361.3,6891.26,3107.22,7.40122
330,43,7718.66,7535.45,11273,2.49064
331,43,31445.6,9310.41,4057.67,5.82716
332,43,2155.72,9382.24,3646.27,6.40836
333,43,15380.3,10978.7,2468.37,9.13623
334,43,2198.12,13514.5,3215.15,7.17593
335,43,15844.1,13990,2577.46,8.77932
336,43,13751.9,14296,4147.6,5.71535
337,43,10616.7,16414.3,5425.31,4.52442
338,43,5811.55,17129.3,2917.48,7.83751
339,43,23715.6,17760.9,4044.32,5.84417
340,43,8467.26,18398.3,2043.05,10.8906
341,43,18403.6,18617.3,1852.73,11.9357
342,43,1270.14,18991.7,7402.21,3.48465
343,43,22417.3,21236.6,1823.14,12.1178
344,43,42436.8,21628.2,2671.46,8.49507
345,43,39908.6,22009.1,5905.17,4.20902
346,43,49319.4,25203.8,3033.53,7.56421
347,43,37514.2,26895.4,4711.02,5.11134
348,43,47446.5,27193.8,3734.47,6.27305
349,43,45505.6,27393.4,3340.48,6.93248
350,43,25053.9,27984.2,3074.73,7.47213
351,43,29529.5,29507.9,2601.83,8.70366
352,43,20981.3,29894.8,1301.49,16.684
353,43,32359.3,32488.2,5249.49,4.65422
354,43,3363.72,33810.9,3250.54,7.10528
355,43,35500.1,34040,2151.56,10.3773
356,43,24812.8,34705.6,3136.23,7.33914
357,43,43842.6,34983.2,2413.83,9.32675
358,43,23503.8,34933.4,5297.65,4.61782
359,43,48339.6,35042.3,3132.75,7.34653
360,43,46913.9,35264.4,4495.75,5.3244
361,43,2684.79,36076.6,3710.1,6.3098
362,43,1747.02,37318,1747.7,12.6097
363,43,4983.51,37646.4,3229.65,7.14679
364,43,5851.72,40411.6,3694.43,6.33368
365,43,3737.4,42358.1,4067.53,5.81466
366,43,49627.6,42363.3,3016.12,7.60387
367,43,5842.17,44420.3,3360.21,6.8958
368,43,35673.2,45186.3,3418.23,6.79037
369,43,4081.49,45407.1,4151.67,5.71042
370,43,27293.1,45681.7,1983.28,11.1972
371,43,40438.4,46209.6,2023.9,10.9869
372,43,28289,47215,3473.36,6.69346
373,43,5943.28,48735.4,7740.49,3.35917
374,44,46355.8,609.398,3832.53,6.12987
375,44,22436.3,830.922,6037.47,4.13077
376,44,6791.4,1134.03,5140.99,4.73871
377,44,36694.8,2234.8,3263.89,7.07904
378,44,33318,2482.48,3652.07,6.39926
379,44,9687.66,3513.93,2883.83,7.92086
380,44,38042.4,4236.72,4514.32,5.30523
381,44,43873.3,5403.27,3657.3,6.3911
382,44,32335.8,5465.41,4031.56,5.86055
383,44,12346.1,6851.58,3104.9,7.40624
384,44,7717.81,7542.07,11257.4,2.49332
385,44,31454.3,9294.34,3787.85,6.1942
386,44,2135.41,9371.45,3693.85,6.33457
387,44,15340.2,10968.6,2658.69,8.5325
388,44,2193.11,13534.4,3203.54,7.19943
389,44,15826.3,14022.9,2678.42,8.47481
390,44,13786.9,14284.2,3959.6,5.95481
391,44,10636.7,16427.2,5529.17,4.45157
392,44,5767.89,17123.6,3094.46,7.4289
393,44,23683.5,17778,4098.28,5.77606
394,44,8507.57,18377.5,2088.31,10.67
395,44,18332.9,18636.8,1840.54,12.01
396,44,1256.25,18997.5,7442.25,3.46921
397,44,22421.9,21236.4,1688.52,13.0264
398,44,42479.6,21637.5,2673.78,8.48831
399,44,39910.4,22016.5,5841.35,4.24802
400,44,49317,25200.6,2998.14,7.64534
401,44,37506.9,26884.9,4688.4,5.13283
402,44,47442.3,27204.1,3620.16,6.44968
403,44,45483.4,27397.6,3487.86,6.66846
404,44,25046.7,27994.1,3011.48,7.61453
405,44,29539.5,29524.3,2550.77,8.86384
406,44,21017.9,29891.7,1347.91,16.1346
407,44,32349.4,32482.9,5259.36,4.64671
408,44,3381.78,33831,3348.6,6.91732
409,44,35502.3,34089.5,2256,9.92974
410,44,24813.4,34722.8,3027.15,7.5787
411,44,43831.9,34979.4,2373.21,9.47429
412,44,23498.6,34908.2,5066.72,4.79861
413,44,48323.6,35033.3,3246.48,7.11331
414,44,46888.2,35301.1,4378.54,5.44914
415,44,2692.81,36110.7,3869.67,6.07753
416,44,1738.21,37322.1,1762.21,12.5119
417,44,4990.74,37670,3265.05,7.07677
418,44,5836.91,40410.8,4108.73,5.76309
419,44,3746.24,42349.7,3892.88,6.04532
420,44,49606.2,42365.3,2805.49,8.12258
421,44,5845.49,44493,3414.75,6.7966
422,44,35681.4,45164.9,3453.63,6.72779
423,44,4038.84,45410.4,4091.32,5.78475
424,44,27258.3,45636.5,1990.83,11.1575
425,44,40461.8,46180,1933.96,11.4645
426,44,28286.2,47217,3435.06,6.76046
427,44,5943.08,48726.4,7875.11,3.31217
428,61,22404.6,827.875,6070.54,4.11173
429,61,6752.32,1129.38,5109.65,4.76377
430,61,36705.6,2241.23,3339.32,6.93465
431,61,33310.4,2416.41,3559.81,6.54747
432,61,9711.64,3532.13,2793.31,8.15497
433,61,38036.2,4246.84,4658.22,5.1618
434,61,43908.6,5444.36,3746.07,6.25572
435,61,32364.8,5480.41,4553.78,5.26501
436,61,12352.7,6872.92,3013.8,7.6092
437,61,7718.23,7529.74,10981.8,2.54165
438,61,31452.5,9287.95,4083.2,5.79493
439,61,2097.91,9386.21,3658.46,6.38928
440,61,15389.7,10961.8,2514.79,8.98058
441,61,2195.52,13517.8,3338.74,6.93573
442,61,15858.1,13996.8,2677.26,8.47818
443,61,13774.2,14305.5,3982.81,5.92403
444,61,10625.5,16434.6,5502.48,4.47003
445,61,5757.62,17130.6,2986.53,7.67235
446,61,23726.8,17775.1,4359.98,5.46951
447,61,8491.98,18396.2,2110.94,10.5633
448,61,18402.8,18672,1844.02,11.9887
449,61,1260.83,19012.6,7695.23,3.37533
450,61,22405.1,21220.8,1737.84,12.6772
451,61,42481.8,21649.2,2725.42,8.34072
452,61,39918.7,22007.4,5771.72,4.29154
453,61,49327.6,25253.3,3066.02,7.49138
454,61,37490.5,26900.9,4944.86,4.90073
455,61,47463.4,27205.2,3566.78,6.53602
456,61,45485.5,27433.7,3424.04,6.78002
457,61,25030.8,28001.1,3093.3,7.43143
458,61,29537.9,29524.8,2599.51,8.71081
459,61,21009.3,29914.7,1480.21,14.7577
460,61,32376.4,32508.4,5294.17,4.62043
461,61,3371.97,33876.8,3569.1,6.53221
462,61,35471.9,34103.7,2239.75,9.99663
463,61,24811.9,34758.6,3132.17,7.34776
464,61,43850.9,34979.8,2432.4,9.26093
465,61,23508.4,34945.8,5389.33,4.5503
466,61,48330.2,35004.5,3056.16,7.51333
467,61,46892.1,35251.1,4263.65,5.578
468,61,2617.23,36103.3,3624.22,6.44321
469,61,1768.46,37327.1,1675.17,13.1245
470,61,5006.3,37627.8,3236.62,7.13289
471,61,5842.49,40427.3,4077.98,5.80149
472,61,3767.88,42350.1,4113.95,5.75662
473,61,49608.4,42397,2814.78,8.09809
474,61,5864.16,44437.7,3307.99,6.99383
475,61,35703.8,45174.6,3424.04,6.78002
476,61,4065.51,45415.3,4080.88,5.79784
477,61,27298.2,45643.6,2233.95,10.0208
478,61,40463.7,46194.3,1797.6,12.2797
479,61,28263.6,47203.4,3469.3,6.7005
480,61,5957.36,48732.4,7907.02,3.30126
481,62,22412.7,847.133,6269.57,4.00136
482,62,6786.65,1118.97,5378.89,4.55788
483,62,36681.2,2253.62,3569.1,6.53221
484,62,33280.3,2433.43,3957.86,5.95713
485,62,9716.02,3517.47,2770.68,8.21588
486,62,38054.6,4251.77,4672.15,5.14838
487,62,43886.5,5439.48,3587.09,6.50287
488,62,32368.7,5417.95,4388.99,5.43776
489,62,12343.9,6839.94,3050.94,7.525
490,62,7677.53,7493.01,11121.6,2.51684
491,62,31439.3,9297.42,4006.6,5.89286
492,62,2110.41,9395.74,3599.27,6.48316
493,62,15344.7,10968.3,2446.9,9.21021
494,62,2201.04,13564.3,3204.7,7.19707
495,62,15830.6,14012.4,2590.8,8.73771
496,62,13765.2,14316.5,3970.05,5.94092
497,62,10601.9,16410.9,5533.81,4.44838
498,62,5801.67,17102.5,3177.43,7.25293
499,62,23744.8,17755.7,4366.36,5.46249
500,62,8489.52,18400,2067.42,10.7706
501,62,18399,18659.3,1885.8,11.739
502,62,1258.96,18995.6,7663.9,3.38663
503,62,22405.7,21234.7,1942.09,11.4196
504,62,42468.7,21631.4,2688.86,8.44461
505,62,39913.6,22021.8,5750.25,4.30517
506,62,49306.3,25203,3060.22,7.50427
507,62,37508.5,26914.9,4680.27,5.14059
508,62,47451.5,27231.8,3747.81,6.25313
509,62,45491.8,27433.7,3420.56,6.78623
510,62,25015.9,28006.3,2941.27,7.77973
511,62,29554.3,29532.4,2673.78,8.48831
512,62,21033.4,29850.3,1357.78,16.0226
513,62,32361.4,32492.9,5123.58,4.7526
514,62,3366.91,33840.2,3368.33,6.88082
515,62,35519.7,34093.8,2121.96,10.5121
516,62,24788.3,34730.5,3014.38,7.60786
517,62,43869.7,35006.7,2604.15,8.69653
518,62,23507.6,34913.8,5366.7,4.56675
519,62,48355.5,35043.1,3396.19,6.83001
520,62,46934.7,35280,4456.88,5.36506
521,62,2625.16,36088.1,3693.27,6.33546
522,62,1746.3,37345.3,1716.37,12.8268
523,62,4988.77,37633.9,3270.27,7.06657
524,62,5863.04,40421.2,3949.16,5.96878
525,62,3725.25,42319.9,3909.12,6.023
526,62,49621.3,42376,3016.12,7.60387
527,62,5854.42,44471,3374.14,6.87017
528,62,35670,45175,3476.26,6.68844
529,62,4055.02,45401.2,4007.77,5.89134
530,62,27255.9,45657.9,1978.06,11.2249
531,62,40460.4,46202.2,1893.93,11.6917
532,62,28271.6,47201.2,3619.58,6.45061
533,62,5952.96,48741.2,7842.04,3.32357
534,63,22416.4,784.402,6397.22,3.93413
535,63,6758.25,1123.54,5504.22,4.46882
536,63,36700.9,2230.66,3241.84,7.12251
537,63,33289.5,2419,3582.44,6.51042
538,63,9668.2,3493.13,2837.99,8.03756
539,63,38043.1,4245.64,4729.59,5.09386
540,63,43878.5,5424.27,3615.52,6.45709
541,63,32332.8,5494.1,4243.35,5.6015
542,63,12409.5,6900.59,3241.84,7.12251
543,63,7701.58,7523.73,10613.3,2.61005
544,63,31464,9310.29,4283.96,5.55472
545,63,2108.39,9401.93,3659.04,6.38838
546,63,15387.8,10968.8,2415.57,9.32053
547,63,2176.84,13525.8,3226.17,7.15376
548,63,15830,13988.6,2594.86,8.72513
549,63,13753.8,14304.7,3855.74,6.09704
550,63,10609.7,16444.6,5526.27,4.45357
551,63,5735.64,17120.3,3012.64,7.61186
552,63,23691.4,17764.5,4286.28,5.55208
553,63,8502.75,18403.7,2055.23,10.8302
554,63,18390.8,18675.4,1671.69,13.1503
555,63,1263.64,19008.9,7621.54,3.40204
556,63,22411.3,21249.9,1754.67,12.5626
557,63,42483.9,21625.5,2564.11,8.82136
558,63,39930.7,22012.7,5768.81,4.29337
559,63,49320.1,25196.9,2931.41,7.80358
560,63,37518.7,26924.7,4806.19,5.02318
561,63,47452.5,27206,3513.4,6.62497
562,63,45518.5,27407.4,3364.85,6.88723
563,63,25035.1,28000.5,2976.09,7.69684
564,63,29529.3,29539.2,2561.21,8.83056
565,63,21002.4,29897.8,1264.36,17.1525
566,63,32386.5,32441.7,5109.07,4.76424
567,63,3352.57,33863.4,3258.67,7.08928
568,63,35512.8,34082.3,2053.49,10.8388
569,63,24809.3,34706.9,2969.12,7.71327
570,63,43864.3,34993.7,2615.17,8.66282
571,63,23477.9,34938.6,5165.36,4.71943
572,63,48314.7,35029.8,3191.36,7.22429
573,63,46906.4,35267.7,4516.06,5.30344
574,63,2660.88,36088.8,3513.98,6.62398
575,63,1729.6,37333.7,1542.88,14.1877
576,63,4961.53,37645.6,3251.7,7.10299
577,63,5888.09,40411.7,3980.49,5.9271
578,63,3732.61,42337.3,3972.37,5.93784
579,63,49637.5,42362.4,2964.48,7.72426
580,63,5893.61,44478.9,3461.75,6.71361
581,63,35692.7,45173.7,3505.27,6.63874
582,63,4060.45,45408.1,3863.28,6.08646
583,63,27240.3,45633.1,2009.98,11.058
584,63,40436.4,46171.2,1850.41,11.9498
585,63,28289.7,47261.1,3381.1,6.85743
586,63,5940.77,48722.6,7943.58,3.28887
587,64,22414.3,806.395,6099.56,4.0952
588,64,6783.97,1135.11,5544.26,4.44121
589,64,36669.9,2216.81,3309.73,6.99051
590,64,33329.4,2458.92,3630.02,6.434
591,64,9705.92,3510.05,2926.19,7.81626
592,64,38031.4,4241.24,4625.15,5.19398
593,64,43878.3,5426.35,3495.99,6.65455
594,64,32351,5503.34,4245.67,5.5988
595,64,12342.8,6866.12,3048.62,7.53021
596,64,7725.51,7538.87,10789.7,2.57674
597,64,31442.4,9301.9,4089,5.78765
598,64,2149.76,9388.74,3549.37,6.56473
599,64,15387.8,10956.1,2485.78,9.07718
600,64,2219.21,13553.4,3158.28,7.29272
601,64,15859.8,13991.3,2734.12,8.31639
602,64,13784,14298.3,4020.53,5.87477
603,64,10610.5,16434,5395.72,4.54568
604,64,5722.57,17119.9,3031.79,7.56816
605,64,23732.3,17757.4,4202.15,5.64986
606,64,8507.04,18436.3,1987.93,11.1727
607,64,18400.2,18596,1888.12,11.7254
608,64,1257.96,18991,7765.44,3.35033
609,64,22389.4,21242,1763.95,12.5002
610,64,42467,21645.2,2695.25,8.42626
611,64,39878.3,21990.3,5761.27,4.29816
612,64,49321.7,25198.7,3050.94,7.525
613,64,37507.1,26896.4,4697.68,5.12399
614,64,47446.7,27222,3784.37,6.19927
615,64,45488.7,27422.4,3327.14,6.95753
616,64,25052.7,27967.8,3011.48,7.61453
617,64,29548.6,29512.2,2537.42,8.90676
618,64,20972.2,29870.7,1379.83,15.7783
619,64,32348.5,32487.3,5019.14,4.8379
620,64,3348.75,33833.3,3151.32,7.30731
621,64,35474.8,34059.6,2229.89,10.0377
622,64,24813.5,34736.9,3243,7.12021
623,64,43854.8,34956.1,2506.09,9.00933
624,64,23491.3,34900.5,5587.2,4.41204
625,64,48312.5,35047,3144.94,7.32074
626,64,46910.3,35249.3,4404.07,5.42141
627,64,2627.88,36115.6,3613.78,6.45987
628,64,1737.53,37319.8,1627.59,13.487
629,64,4981.92,37618.6,3251.7,7.10299
630,64,5871.34,40417.3,3857.48,6.0946
631,64,3771.34,42353.8,3879.53,6.0638
632,64,49629.9,42347.9,2790.41,8.16273
633,64,5893.65,44433.8,3299.28,7.01047
634,64,35695.8,45174.2,3482.64,6.67744
635,64,4050.48,45396.3,3973.53,5.9363
636,64,27286.6,45625.8,2023.32,10.9898
637,64,40497.2,46193,1727.98,12.7455
638,64,28259.9,47212.5,3538.35,6.58306
639,64,5944.63,48726.2,8001.02,3.26962
640,65,22406.5,843.793,6093.17,4.09883
641,65,6759.9,1103.92,5599.96,4.40345
642,65,36692.3,2244.13,3654.4,6.39563
643,65,33276.2,2454,3804.68,6.16979
644,65,9742.46,3510.3,2974.93,7.69957
645,65,38031.2,4257.44,4712.19,5.11024
646,65,43872.5,5416.22,3563.88,6.54079
647,65,32358,5452.88,4216.07,5.63341
648,65,12371.7,6892.3,3117.09,7.37998
649,65,7697.3,7522.67,10614.5,2.60983
650,65,31471.9,9324.56,4224.2,5.62386
651,65,2120.77,9389.34,3558.65,6.54938
652,65,15405.6,10939.6,2585,8.75575
653,65,2193.59,13563.1,3229.65,7.14679
654,65,15807.7,13994.2,2656.95,8.53763
655,65,13787.1,14296.2,3921.89,6.00559
656,65,10598.5,16412,5638.26,4.37791
657,65,5776.18,17146.4,2906.46,7.8646
658,65,23724.3,17776.6,4416.84,5.40766
659,65,8488.75,18408.4,2011.14,11.0521
660,65,18398.1,18643,1910.75,11.5951
661,65,1272.47,19008.4,7579.77,3.41742
662,65,22394.8,21259.9,1780.78,12.3889
663,65,42469.8,21669,2721.94,8.35049
664,65,39899.7,22016.2,5713.11,4.32898
665,65,49304.4,25196.8,2901.23,7.87751
666,65,37511.7,26908.9,4784.14,5.0433
667,65,47453.8,27220.6,3722.28,6.29137
668,65,45492.1,27404.5,3201.22,7.20415
669,65,25051,27988.4,2931.41,7.80358
670,65,29541.3,29503.4,2636.64,8.59799
671,65,20990.6,29884.6,1411.16,15.4441
672,65,32343.5,32480.5,5206.56,4.68724
673,65,3389.91,33839.9,3048.04,7.53151
674,65,35519.3,34056.2,1994.31,11.1393
675,65,24787.3,34692.1,3174.53,7.25893
676,65,43799.6,35008.8,2549.02,8.86941
677,65,23517.8,34909,5239.05,4.66221
678,65,48350.8,35051.2,3230.81,7.14447
679,65,46920.9,35253.2,4434.83,5.38843
680,65,2618.49,36102.1,3359.63,6.89687
681,65,1736.26,37312.1,1755.25,12.5586
682,65,4991.25,37644.9,3166.41,7.27578
683,65,5875.12,40404.3,4049.54,5.8375
684,65,3772.51,42348,3920.15,6.00796
685,65,49629.3,42371.4,2618.65,8.65224
686,65,5867.01,44476.2,3490.77,6.66349
687,65,35670.9,45164.3,3427.52,6.77383
688,65,4040.15,45423.3,3856.9,6.09541
689,65,27266.7,45654.3,2038.99,10.9108
690,65,40450.4,46172.6,1794.12,12.3021
691,65,28266.7,47248.7,3431,6.76765
692,65,5954.99,48724.3,7858.28,3.31796
693,81,46356.7,598.547,3543.57,6.57436
694,81,22408.5,860.348,6209.8,4.03377
695,81,6752.45,1122.98,5319.12,4.6018
696,81,36676.6,2262.54,3288.26,7.03167
697,81,33314.6,2443.98,3804.1,6.17063
698,81,9701.91,3524.09,2864.1,7.97063
699,81,38046.8,4235.66,4559,5.25974
700,81,43874.4,5428.6,3457.11,6.7217
701,81,32354.3,5462.72,4204.47,5.64711
702,81,12362.7,6885.29,3167.57,7.27337
703,81,7709.73,7537.07,11321.8,2.48235
704,81,31443.7,9293.5,3885.91,6.05495
705,81,2121.3,9391.64,3794.81,6.18407
706,81,15346.5,10932.1,2675.52,8.48324
707,81,2191.13,13563.1,3167.57,7.27337
708,81,15844.9,13974.4,2778.22,8.19547
709,81,13781.1,14307.6,4018.79,5.87703
710,81,10626.3,16403.8,5425.89,4.524
711,81,5814.49,17110.8,3068.93,7.48495
712,81,23731,17768.8,4212.59,5.63751
713,81,8463.06,18408.5,2076.12,10.7284
714,81,18388.5,18596.2,1835.9,12.0385
715,81,1256.85,18995.1,7844.36,3.32277
716,81,22384.1,21246.7,1841.7,12.0029
717,81,42455.9,21634.2,2782.86,8.18296
718,81,39875,21991.1,5854.11,4.24015
719,81,49309.5,25225.8,3132.75,7.34653
720,81,37516.8,26886.6,4889.16,4.94909
721,81,47440.9,27214,3740.27,6.26437
722,81,45509.8,27397.3,3203.54,7.19943
723,81,25047.8,27961.8,3043.98,7.54063
724,81,29511.3,29520.8,2524.65,8.94824
725,81,20996,29889.1,1330.51,16.3361
726,81,32368.5,32472.1,5189.73,4.70033
727,81,3354.4,33843.1,3217.47,7.17125
728,81,35502.6,34046.6,2098.17,10.6232
729,81,24783.6,34739.1,3126.37,7.36012
730,81,43872.1,35007.9,2563.53,8.8232
731,81,23488.5,34917.8,5226.86,4.67156
732,81,48343.4,35042.4,3158.28,7.29272
733,81,46915.3,35266.1,4480.67,5.3401
734,81,2696.51,36101,3649.17,6.40381
735,81,1761.8,37352.6,1610.19,13.625
736,81,4981.39,37620.3,3327.14,6.95753
737,81,5860.07,40426.7,3800.04,6.1765
738,81,3728.54,42361.2,3851.68,6.10276
739,81,49629.3,42359.1,2899.49,7.88182
740,81,5866.6,44450.6,3392.12,6.83737
741,81,35674.2,45191,3382.26,6.85531
742,81,4072.78,45425.1,3877.79,6.06622
743,81,27254.7,45649.8,1988.51,11.1697
744,81,40444.4,46182.7,1691.42,13.0053
745,81,28270.1,47254.3,3706.62,6.31509
746,81,5955.53,48728.4,7716.12,3.36784
747,82,22415.2,790.656,6338.04,3.96497
748,82,6790.59,1115.02,4966.33,4.88237
749,82,36667.4,2251.97,3457.11,6.7217
750,82,33311,2459.83,3697.33,6.32924
751,82,9677.54,3506.6,2778.8,8.1939
752,82,38049.7,4228.71,4676.21,5.14448
753,82,43885.4,5439.07,3534.28,6.58984
754,82,32354,5501,4139.48,5.72525
755,82,12330.2,6895.91,3142.04,7.32686
756,82,7693.26,7524.36,11333.4,2.48039
757,82,31436.1,9279.85,4134.84,5.73093
758,82,2124.76,9397.55,3884.75,6.05655
759,82,15400.1,10965.5,2824.64,8.07224
760,82,2191.4,13553.3,3224.43,7.15725
761,82,15838.7,14004.4,2716.72,8.3652
762,82,13767.1,14305.6,4034.46,5.85682
763,82,10612.2,16409.7,5573.27,4.42145
764,82,5786.79,17109.8,3122.89,7.36755
765,82,23738.5,17755.5,4236.38,5.60961
766,82,8467.83,18415.7,1985.6,11.185
767,82,18364,18644.7,1806.31,12.224
768,82,1251.54,18976.7,7737.59,3.3602
769,82,22381,21236.6,1722.75,12.7819
770,82,42463.4,21649.9,2896.01,7.89046
771,82,39895.5,21971,5924.32,4.19748
772,82,49313.2,25214.4,3096.2,7.42511
773,82,37493.7,26895.1,4791.1,5.03693
774,82,47458.5,27194.7,3878.37,6.06541
775,82,45476.3,27402.1,3256.93,7.09271
776,82,25036.2,27975.8,3115.35,7.38372
777,82,29540.9,29554.2,2496.22,9.04215
778,82,21012,29910.5,1365.9,15.9317
779,82,32391.1,32511.2,5127.06,4.74981
780,82,3388.4,33887.3,3286.52,7.03503
781,82,35514.3,34039.2,2234.53,10.0183
782,82,24836.6,34744.4,3079.95,7.46064
783,82,43864.2,35000.9,2412.09,9.33297
784,82,23495.6,34905.1,5306.36,4.61131
785,82,48342.9,35041.3,3302.19,7.00491
786,82,46912.7,35274.6,4235.22,5.61096
787,82,2674.71,36096,3435.06,6.76046
788,82,1722.57,37319.9,1681.56,13.0774
789,82,5006.83,37631.5,3252.28,7.10185
790,82,5878.31,40410.4,3912.02,6.01904
791,82,3751.48,42350.4,3727.51,6.2835
792,82,49616,42388.1,2851.33,8.0032
793,82,5834.41,44459.5,3348.02,6.9184
794,82,35690.4,45186.4,3235.46,7.13521
795,82,4074.46,45435.4,4073.91,5.8066
796,82,27285,45651.4,2086.57,10.6783
797,82,40474.9,46209.3,1751.77,12.5822
798,82,28256.7,47251.4,3413.01,6.79971
799,82,5933.94,48733.1,7591.95,3.41292
800,83,22395.1,835.391,6471.49,3.89622
801,83,6796.15,1137.95,5170.58,4.71532
802,83,36706.2,2224.64,3275.49,7.0564
803,83,33319.5,2459.55,3598.11,6.48503
804,83,9703.05,3519.62,2896.59,7.88902
805,83,38047.1,4253.69,4643.14,5.17642
806,83,43884.9,5396.87,3555.17,6.55513
807,83,32340.7,5470.41,4359.98,5.46951
808,83,12367,6851.27,3061.96,7.5004
809,83,7676.05,7504.91,11036.3,2.5319
810,83,31443.8,9308.69,3944.52,5.97501
811,83,2140.26,9375.66,3920.73,6.00717
812,83,15373.9,10933.5,2867.58,7.9618
813,83,2207.54,13567.6,3227.91,7.15027
814,83,15813.4,13998.8,2721.36,8.35212
815,83,13775.6,14271.4,4055.35,5.83011
816,83,10632.3,16455,5931.86,4.19296
817,83,5758.53,17092.3,3034.69,7.56158
818,83,23720.6,17759.2,4331.54,5.50104
819,83,8481.18,18390.9,2099.91,10.615
820,83,18396,18635.5,1862.01,11.8798
821,83,1263.5,19003.2,7709.74,3.37013
822,83,22397.3,21204.5,1677.49,13.1073
823,83,42469.3,21675.6,2798.53,8.14106
824,83,39916.7,21992,5840.19,4.24874
825,83,49298.3,25189.1,3079.37,7.46191
826,83,37502,26892.4,4906.57,4.93386
827,83,47441.4,27225.1,3809.32,6.1631
828,83,45494.3,27438.5,3313.79,6.98279
829,83,25033.2,28005.6,2941.85,7.77834
830,83,29577.6,29518,2579.78,8.77205
831,83,20998,29871.1,1315.42,16.5151
832,83,32369,32486.7,5324.35,4.59792
833,83,3341.32,33830.1,3290,7.02831
834,83,35463.4,34055.2,2047.69,10.8675
835,83,24804.9,34735.6,3116.51,7.38123
836,83,43862.4,35022.7,2601.25,8.70545
837,83,23499.8,34916.6,5025.52,4.83259
838,83,48351.6,35061,3077.63,7.46574
839,83,46892.8,35268.6,4536.37,5.28267
840,83,2638.72,36097.8,3581.28,6.5123
841,83,1750.98,37293.2,1732.04,12.7173
842,83,5024.54,37650.3,3254.6,7.09727
843,83,5835.27,40420.2,3807.58,6.16561
844,83,3715.34,42342.7,3737.95,6.26784
845,83,49610.5,42382,2814.2,8.09962
846,83,5851.92,44462.2,3375.3,6.86804
847,83,35705.8,45192.9,3072.41,7.47725
848,83,4065.18,45438.1,4084.94,5.79274
849,83,27277.3,45639.2,2017.52,11.0193
850,83,40465,46166.3,1861.43,11.8833
851,83,28286.4,47254.9,3504.69,6.63972
852,83,5965.8,48733.6,7803.74,3.33689
853,84,22403.2,800.855,6356.6,3.95524
854,84,6793.88,1138.78,5251.81,4.65245
855,84,36651.6,2240.39,3553.43,6.55801
856,84,33283.5,2447.51,3766.38,6.22564
857,84,9699.32,3502.52,2739.35,8.30187
858,84,38040.5,4253.34,4596.14,5.22259
859,84,43884.3,5404.35,3485.54,6.67245
860,84,32330.3,5492.69,4180.68,5.67544
861,84,12354.6,6885.6,3067.19,7.48881
862,84,7681,7506.95,11074,2.52521
863,84,31463.6,9319.15,3961.93,5.95172
864,84,2146.63,9386.84,3747.81,6.25313
865,84,15367.7,10976.6,2741.67,8.29543
866,84,2173.61,13544.3,3208.77,7.18883
867,84,15870.5,13997.4,2782.86,8.18296
868,84,13794.5,14297.1,4033.88,5.85756
869,84,10624.9,16452.4,5782.16,4.28495
870,84,5753.26,17126.9,3056.74,7.51203
871,84,23735.8,17765.1,4359.98,5.46951
872,84,8478.39,18400.9,1976.9,11.2311
873,84,18400.5,18664.4,1842.86,11.9958
874,84,1263.9,19015.1,7682.47,3.37992
875,84,22403.2,21187.1,1803.99,12.2388
876,84,42471.5,21673.3,2954.04,7.74911
877,84,39894.6,22022.1,5900.53,4.21183
878,84,49309.1,25185.2,3161.19,7.28666
879,84,37512.4,26894,4901.35,4.93842
880,84,47445.4,27206.7,3751.88,6.24709
881,84,45520.4,27422.2,3206.44,7.19354
882,84,25050.8,28011.1,2956.94,7.74219
883,84,29509.5,29527.4,2508.99,8.99973
884,84,21004.8,29864.2,1368.22,15.9059
885,84,32348.6,32483.7,5388.75,4.55072
886,84,3390.02,33851,3375.3,6.86804
887,84,35493.6,34036.8,2033.77,10.937
888,84,24794.3,34705.5,3295.22,7.01826
889,84,43834.6,35019.9,2539.74,8.89927
890,84,23496.5,34916.3,5224.54,4.67334
891,84,48346,35011,3031.21,7.56947
892,84,46884.5,35306.7,4230,5.61706
893,84,2636.48,36117.6,3605.07,6.47382
894,84,1756.8,37311.7,1729.14,12.7374
895,84,5019.55,37605.5,3317.27,6.97618
896,84,5846.94,40429.3,3934.07,5.98908
897,84,3722.74,42348.3,3747.23,6.25399
898,84,49636.7,42364.7,2894.27,7.89479
899,84,5860.29,44437,3315.53,6.97948
900,84,35679.4,45187.4,3328.3,6.95534
901,84,4071.76,45410.8,3968.89,5.94246
902,84,27244.3,45638.4,1885.22,11.7424
903,84,40465.2,46185,1734.36,12.7012
904,84,28289.5,47234.7,3417.65,6.79141
905,84,5964.25,48745.4,7866.41,3.31516
906,85,46361.7,597.348,3448.99,6.73593
907,85,22406.7,823.504,6533.58,3.86518
908,85,6768.16,1119.06,5308.68,4.60958
909,85,36658.5,2240.17,3240.1,7.12597
910,85,33333.2,2445.04,3805.84,6.16812
911,85,9699.34,3539.09,2728.32,8.33259
912,85,38053.1,4228.81,4506.78,5.313
913,85,43898.6,5429.59,3605.07,6.47382
914,85,32377.7,5447.02,4422.64,5.40144
915,85,12362.1,6893.62,3209.35,7.18766
916,85,7697.18,7528.98,10929.5,2.55107
917,85,31445.1,9298.35,3956.7,5.95868
918,85,2123.78,9388.55,3912.6,6.01824
919,85,15378.3,10971.3,2716.72,8.3652
920,85,2198.52,13556.5,3296.38,7.01603
921,85,15860.7,13999.3,2805.49,8.12258
922,85,13775.6,14283.3,4070.43,5.81099
923,85,10613.1,16440.8,5783.32,4.28421
924,85,5766.3,17142,3135.65,7.34037
925,85,23723.2,17747.2,4078.56,5.80076
926,85,8504.26,18386.3,2015.2,11.0312
927,85,18382,18608.1,1857.37,11.9077
928,85,1261.96,19019.4,7797.36,3.33912
929,85,22414.8,21227.2,1843.44,11.9922
930,85,42492.1,21645.1,3088.07,7.44283
931,85,39911.7,22003.9,5850.05,4.24265
932,85,49298.2,25226.4,2875.7,7.94127
933,85,37486.9,26903.1,5007.53,4.84759
934,85,47436.2,27220.5,3816.86,6.15226
935,85,45462.2,27405.5,3375.88,6.86698
936,85,25033.6,27991.5,3134.49,7.34283
937,85,29545.7,29519.4,2485.2,9.07914
938,85,21013.6,29877.8,1372.86,15.8546
939,85,32351.5,32492.8,5326.67,4.5962
940,85,3393.33,33864.5,3049.78,7.5276
941,85,35479.6,34083.5,2126.02,10.4934
942,85,24774.6,34750.8,3121.15,7.37128
943,85,43842,34978.4,2576.3,8.78296
944,85,23485.9,34925,5294.75,4.61999
945,85,48319,35049.1,3024.25,7.58531
946,85,46943.5,35278.3,4289.19,5.54877
947,85,2644.61,36104,3746.65,6.25486
948,85,1730.23,37349,1614.25,13.5925
949,85,4998.98,37620.5,3191.36,7.22429
950,85,5869.16,40439.9,3533.12,6.59178
951,85,3713.17,42357.4,3772.77,6.21626
952,85,49633.3,42374.4,2861.2,7.97801
953,85,5856.09,44404.5,3276.07,7.05527
954,85,35681.4,45194.9,3345.12,6.92381
955,85,4090.26,45442.7,3956.12,5.95946
956,85,27226.1,45644.4,1915.4,11.5687
957,85,40429.2,46198,1820.23,12.136
958,85,28295.7,47243.4,3379.94,6.85955
959,85,5976.16,48739.5,7932.56,3.29259
960,86,46360.4,609.766,3500.05,6.64762
961,86,22412,789.117,6365.31,3.95069
962,86,6771.02,1101.87,5474.63,4.48948
963,86,36700.5,2251.09,3398.51,6.82582
964,86,33309.4,2444.14,3572.58,6.52651
965,86,9694.96,3515.59,2721.94,8.35049
966,86,38040.7,4227.57,4641.98,5.17755
967,86,43854,5410.47,3476.26,6.68844
968,86,32348.1,5466.84,4170.81,5.68728
969,86,12372.2,6881.85,3179.17,7.24933
970,86,7704.89,7521.72,10785,2.5776
971,86,31461.2,9287.16,4004.28,5.89588
972,86,2109.39,9392.64,3714.74,6.30277
973,86,15406.8,10993.8,2621.56,8.64344
974,86,2176.78,13544.1,3347.44,6.91948
975,86,15842.5,14001.2,2575.72,8.78478
976,86,13763.7,14295.1,4100.02,5.7739
977,86,10625.1,16411.5,5703.83,4.33498
978,86,5753.27,17115.9,3179.17,7.24933
979,86,23699.5,17768.2,4195.77,5.65744
980,86,8482.85,18374.2,2012.3,11.0461
981,86,18371.9,18664.7,1727.98,12.7455
982,86,1254.38,19010.6,7719.02,3.36681
983,86,22425.5,21240.3,1754.67,12.5626
984,86,42482.6,21654.5,2863.52,7.9721
985,86,39911.1,22028.9,5692.8,4.34213
986,86,49334.4,25210.6,3089.23,7.44029
987,86,37502.6,26919.2,4723.79,5.09931
988,86,47439.4,27209.1,3714.16,6.30364
989,86,45468.8,27408.5,3254.6,7.09727
990,86,25057.2,27986.1,2949.98,7.75883
991,86,29551.9,29493.3,2502.6,9.02088
992,86,21008,29939.1,1401.88,15.5416
993,86,32367.8,32485.7,5246.59,4.65644
994,86,3369.45,33822.5,3172.21,7.26373
995,86,35479.7,34039.5,2043.63,10.8877
996,86,24813.7,34732.1,3209.93,7.18648
997,86,43851.3,34989.2,2370.89,9.48287
998,86,23511.9,34905.5,5175.8,4.71122
999,86,48346.9,35052.7,3312.63,6.98499
1000,86,46903.6,35234.4,4466.16,5.35528
1001,86,2686.62,36093.1,3532.54,6.59275
1002,86,1735.7,37340.7,1607.28,13.6483
1003,86,4971.45,37588.4,3176.27,7.25533
1004,86,5879.51,40421.4,3866.19,6.0824
1005,86,3743.12,42326.9,3761.16,6.23335
1006,86,49616.2,42355.4,2791.57,8.15962
1007,86,5860.53,44462.2,3231.98,7.14215
1008,86,35702.6,45201,3328.3,6.95534
1009,86,4079.48,45432.2,4132.52,5.73377
1010,86,27265.7,45656,2130.67,10.472
1011,86,40460.5,46176.8,1833,12.0565
1012,86,28270.4,47236.5,3512.81,6.62595
1013,86,5960.81,48748.1,7876.85,3.31157
